# If you use this flux, cite http://wwwmpa.mpa-garching.mpg.de/ccsnarchive/data/Huedepohl2014_phd_thesis/, 
# Huedepohl, L. (2014), Neutrinos from the Formation, Cooling and Black Hole Collapse of Neutron Stars, PhD. Thesis, Technische Universitat Muenchen
# time (s), <energy> (MeV), alpha, luminosity (foe/s), for nu_e, nu_e_bar, nu_mu
-0.000448727 8.40861 6.3019 1.07841e+53 0 0 0 0 0 0
-0.000348727 8.42976 6.29263 1.08297e+53 3.03241 1.31484 1.23881e+45 3.84385 1.14241 1.16448e+45
-0.000248727 8.45128 6.28377 1.08684e+53 2.89297 1.80492 2.01181e+45 3.49692 1.47959 1.519e+45
-0.000148727 8.4732 6.27539 1.08992e+53 2.85724 2.09987 3.34582e+45 3.37875 1.78283 2.14052e+45
-4.87266e-05 8.49551 6.26759 1.09215e+53 2.84976 2.28218 5.2708e+45 3.3291 2.02414 3.0894e+45
5.12734e-05 8.51857 6.26049 1.09525e+53 2.85055 2.39799 7.91088e+45 3.30482 2.20654 4.48849e+45
0.000151273 8.54122 6.25404 1.09532e+53 2.86777 2.4759 1.10892e+46 3.30785 2.36905 6.24916e+45
0.000251273 8.56446 6.24843 1.09417e+53 2.89588 2.51852 1.49485e+46 3.32889 2.50381 8.47552e+45
0.000351273 8.58787 6.24352 1.0918e+53 2.93319 2.5325 1.95412e+46 3.36388 2.61107 1.12259e+46
0.000451273 8.61141 6.23938 1.08825e+53 2.97673 2.5263 2.48137e+46 3.40785 2.69087 1.44887e+46
0.000551273 8.63521 6.23608 1.08346e+53 3.02246 2.50895 3.05835e+46 3.40038 2.69308 1.93819e+46
0.000651273 8.65931 6.2336 1.07736e+53 3.06679 2.48705 3.65958e+46 3.20872 3.31092 4.351e+46
0.000751273 8.68372 6.23196 1.06983e+53 3.10783 2.46311 4.26638e+46 3.27527 4.09973 1.18361e+47
0.000851273 8.7084 6.23116 1.06077e+53 3.14526 2.43769 4.86949e+46 3.39862 4.25146 2.92387e+47
0.000951273 8.73332 6.23123 1.05006e+53 3.17931 2.41134 5.46661e+46 3.46898 4.23813 6.72062e+47
0.00105127 8.75843 6.23207 1.03776e+53 3.21054 2.38536 6.05945e+46 3.55234 4.22102 1.43974e+48
0.00115127 8.78369 6.23366 1.02381e+53 3.24337 2.36464 6.6978e+46 3.64463 4.2198 2.98915e+48
0.00125127 8.80922 6.23676 1.00837e+53 3.46713 2.53788 8.74749e+46 3.73204 4.24644 5.86857e+48
0.00135127 8.83476 6.24086 9.9121e+52 3.98664 3.50066 1.65325e+47 3.81785 4.29306 1.13096e+49
0.00145127 8.86011 6.24504 9.72312e+52 4.34705 4.60116 3.54401e+47 3.90688 4.34889 2.11248e+49
0.00155127 8.8854 6.24945 9.51731e+52 4.50706 5.20309 7.32884e+47 4.00104 4.41689 3.76637e+49
0.00165127 8.91093 6.25491 9.29394e+52 4.56413 5.3108 1.48162e+48 4.10611 4.49135 6.46276e+49
0.00175127 8.93676 6.26154 9.05843e+52 4.59527 5.22481 2.57626e+48 4.22225 4.56389 1.00353e+50
0.00185127 8.9637 6.27248 8.80439e+52 4.63232 5.20628 4.781e+48 4.36357 4.56395 1.54267e+50
0.00195127 8.99103 6.28584 8.54115e+52 4.70087 5.1736 7.90634e+48 4.52888 4.51797 2.21751e+50
0.00205127 9.01821 6.29977 8.27337e+52 4.79257 5.12738 1.15384e+49 4.71024 4.44701 2.98616e+50
0.00215127 9.04291 6.30921 8.00483e+52 4.93651 5.04297 1.55506e+49 4.92207 4.35778 3.95428e+50
0.00225127 9.06193 6.3076 7.75037e+52 5.10117 4.90859 1.91783e+49 5.15643 4.26757 5.09696e+50
0.00235127 9.07749 6.29924 7.50454e+52 5.2785 4.74365 2.25709e+49 5.40456 4.17676 6.34638e+50
0.00245127 9.08093 6.27266 7.3119e+52 5.46281 4.54474 2.52764e+49 5.68282 4.10022 7.95061e+50
0.00255127 9.08084 6.24308 7.14966e+52 5.64474 4.34365 2.77937e+49 5.97016 4.03223 9.71101e+50
0.00265127 9.07415 6.21 7.05868e+52 5.81798 4.14573 2.99681e+49 6.27488 3.98447 1.1815e+51
0.00275127 9.07106 6.18578 7.05616e+52 5.97661 3.96563 3.19772e+49 6.57958 3.95749 1.42379e+51
0.00285127 9.07035 6.16738 7.11166e+52 6.12566 3.79724 3.38779e+49 6.88427 3.94414 1.687e+51
0.00295127 9.08709 6.15848 7.28422e+52 6.25891 3.65211 3.56947e+49 7.17464 3.94747 1.9778e+51
0.00305127 9.1147 6.15549 7.52965e+52 6.38231 3.52145 3.74592e+49 7.45609 3.9612 2.28578e+51
0.00315127 9.17317 6.14527 7.92686e+52 6.4925 3.41661 3.92405e+49 7.7173 3.97973 2.61098e+51
0.00325127 9.24397 6.13215 8.38477e+52 6.59739 3.32209 4.10286e+49 7.97042 4.00017 2.94307e+51
0.00335127 9.35067 6.10046 9.0289e+52 6.69336 3.25138 4.29984e+49 8.19956 4.01738 3.28036e+51
0.00345127 9.46565 6.06448 9.71605e+52 6.78727 3.18617 4.50101e+49 8.42315 4.03385 3.61886e+51
0.00355127 9.6118 6.01469 1.06135e+53 6.87738 3.14249 4.74235e+49 8.62241 4.04003 3.9504e+51
0.00365127 9.7612 5.96353 1.15337e+53 6.96713 3.10111 4.98827e+49 8.81905 4.04507 4.28108e+51
0.00375127 9.93224 5.91089 1.26888e+53 7.05919 3.08195 5.30929e+49 8.98958 4.0364 4.59198e+51
0.00385127 10.1033 5.85824 1.38439e+53 7.15126 3.06279 5.6303e+49 9.16011 4.02773 4.90287e+51
0.00395127 10.2789 5.81022 1.51288e+53 7.24842 3.05663 6.02616e+49 9.31484 4.0109 5.19542e+51
0.00405127 10.457 5.76482 1.64871e+53 7.34848 3.05784 6.46436e+49 9.46063 3.98945 5.47757e+51
0.00415127 10.6334 5.72323 1.7884e+53 7.45168 3.06402 6.95303e+49 9.59997 3.9651 5.74976e+51
0.00425127 10.8058 5.68986 1.9364e+53 7.56166 3.08092 7.55042e+49 9.72542 3.9345 6.00047e+51
0.00435127 10.9782 5.65649 2.0844e+53 7.67164 3.09782 8.14781e+49 9.85087 3.90389 6.25118e+51
0.00445127 11.1378 5.6337 2.23566e+53 7.79048 3.1265 8.95373e+49 9.95954 3.86759 6.47034e+51
0.00455127 11.2973 5.61096 2.38694e+53 7.90936 3.15524 9.76064e+49 10.0681 3.83126 6.68935e+51
0.00465127 11.4448 5.5936 2.53418e+53 8.03145 3.18987 1.07531e+50 10.1665 3.79248 6.88817e+51
0.00475127 11.5865 5.57885 2.67948e+53 8.15508 3.22734 1.18356e+50 10.2599 3.75251 7.07722e+51
0.00485127 11.7248 5.56501 2.82224e+53 8.27828 3.26561 1.29747e+50 10.351 3.71235 7.26188e+51
0.00495127 11.8457 5.55573 2.95231e+53 8.39927 3.30786 1.43973e+50 10.4305 3.67126 7.42461e+51
0.00505127 11.9666 5.54646 3.08239e+53 8.52027 3.35011 1.582e+50 10.51 3.63017 7.58733e+51
0.00515127 12.0736 5.53889 3.19768e+53 8.63517 3.39221 1.74945e+50 10.5814 3.58972 7.73552e+51
0.00525127 12.1732 5.53221 3.30528e+53 8.7469 3.43423 1.93002e+50 10.6487 3.54961 7.87613e+51
0.00535127 12.2699 5.52562 3.40905e+53 8.85682 3.4757 2.11691e+50 10.7143 3.50989 8.0144e+51
0.00545127 12.3496 5.51947 3.49079e+53 8.95629 3.51397 2.34006e+50 10.77 3.47245 8.13918e+51
0.00555127 12.4293 5.51333 3.57252e+53 9.05575 3.55223 2.56322e+50 10.8257 3.43501 8.26396e+51
0.00565127 12.4977 5.507 3.63767e+53 9.14784 3.58688 2.81661e+50 10.8759 3.40011 8.38047e+51
0.00575127 12.5598 5.50057 3.69344e+53 9.23576 3.6195 3.08708e+50 10.9231 3.36665 8.49231e+51
0.00585127 12.6197 5.49384 3.74603e+53 9.32218 3.65118 3.36416e+50 10.9695 3.33371 8.60328e+51
0.00595127 12.665 5.48507 3.77732e+53 9.39853 3.67657 3.68552e+50 11.0105 3.30426 8.70837e+51
0.00605127 12.7103 5.4763 3.80861e+53 9.47489 3.70197 4.00687e+50 11.0515 3.27482 8.81346e+51
0.00615127 12.7458 5.46526 3.82635e+53 9.54415 3.72266 4.35919e+50 11.0891 3.24769 8.91606e+51
0.00625127 12.7749 5.45274 3.83529e+53 9.60881 3.7403 4.73161e+50 11.1245 3.22207 9.01705e+51
0.00635127 12.8028 5.43999 3.84259e+53 9.67278 3.75743 5.10958e+50 11.1595 3.19688 9.11842e+51
0.00645127 12.8186 5.42492 3.83418e+53 9.73012 3.76976 5.54077e+50 11.1901 3.17586 9.22336e+51
0.00655127 12.8345 5.40986 3.82578e+53 9.78746 3.78209 5.97195e+50 11.2207 3.15484 9.32829e+51
0.00665127 12.8442 5.39386 3.80885e+53 9.84051 3.79261 6.43604e+50 11.2506 3.13611 9.43181e+51
0.00675127 12.8495 5.3772 3.78592e+53 9.89055 3.80187 6.92333e+50 11.28 3.11899 9.53433e+51
0.00685127 12.854 5.36024 3.76208e+53 9.94021 3.81084 7.41571e+50 11.3091 3.1021 9.63706e+51
0.00695127 12.8485 5.33967 3.72721e+53 9.98506 3.81619 7.97081e+50 11.3346 3.08796 9.74246e+51
0.00705127 12.843 5.3191 3.69234e+53 10.0299 3.82153 8.52591e+50 11.3601 3.07383 9.84785e+51
0.00715127 12.8335 5.29805 3.65312e+53 10.0717 3.82606 9.11062e+50 11.3858 3.06124 9.95401e+51
0.00725127 12.8206 5.27662 3.61031e+53 10.1109 3.82992 9.71982e+50 11.4117 3.04994 1.00608e+52
0.00735127 12.8075 5.25512 3.56717e+53 10.1499 3.83378 1.03312e+51 11.4376 3.0387 1.01675e+52
0.00745127 12.788 5.23233 3.51726e+53 10.1839 3.83738 1.09899e+51 11.4648 3.02871 1.02712e+52
0.00755127 12.7685 5.20954 3.46734e+53 10.2179 3.84098 1.16486e+51 11.492 3.01873 1.03749e+52
0.00765127 12.7461 5.18527 3.41411e+53 10.248 3.84463 1.23229e+51 11.5185 3.00897 1.04748e+52
0.00775127 12.721 5.15964 3.35779e+53 10.2744 3.84833 1.30117e+51 11.5444 2.99942 1.05712e+52
0.00785127 12.6958 5.13397 3.30146e+53 10.3008 3.85206 1.3701e+51 11.5703 2.9899 1.06677e+52
0.00795127 12.6658 5.10611 3.24425e+53 10.3195 3.85739 1.44181e+51 11.5937 2.98241 1.07686e+52
0.00805127 12.6359 5.07826 3.18705e+53 10.3383 3.86272 1.51353e+51 11.6172 2.97493 1.08695e+52
0.00815127 12.6046 5.04998 3.13055e+53 10.3555 3.86881 1.5875e+51 11.6402 2.96889 1.09762e+52
0.00825127 12.5718 5.02129 3.07474e+53 10.3713 3.87564 1.6637e+51 11.6629 2.96428 1.10885e+52
0.00835127 12.539 4.99259 3.01894e+53 10.3871 3.88248 1.7399e+51 11.6855 2.95967 1.12008e+52
0.00845127 12.5044 4.96434 2.96613e+53 10.4045 3.88986 1.8232e+51 11.7087 2.95735 1.13266e+52
0.00855127 12.4697 4.9361 2.91337e+53 10.4218 3.89725 1.90661e+51 11.7319 2.95507 1.14526e+52
0.00865127 12.4342 4.90837 2.86207e+53 10.4396 3.90494 1.99349e+51 11.7552 2.95349 1.15833e+52
0.00875127 12.3978 4.8813 2.8126e+53 10.4578 3.91299 2.08472e+51 11.7785 2.95281 1.172e+52
0.00885127 12.3613 4.85423 2.76314e+53 10.4761 3.92104 2.17594e+51 11.8019 2.95213 1.18566e+52
0.00895127 12.326 4.83157 2.71892e+53 10.4973 3.92828 2.27479e+51 11.8261 2.95205 1.19975e+52
0.00905127 12.2908 4.80935 2.67522e+53 10.5187 3.93544 2.37438e+51 11.8504 2.95202 1.21387e+52
0.00915127 12.2559 4.78842 2.63323e+53 10.5412 3.94182 2.4776e+51 11.8743 2.95223 1.22809e+52
0.00925127 12.2213 4.76935 2.59368e+53 10.5652 3.94709 2.586e+51 11.8977 2.9528 1.24241e+52
0.00935127 12.1867 4.75028 2.55413e+53 10.5892 3.95236 2.6944e+51 11.9211 2.95336 1.25674e+52
0.00945127 12.1532 4.73374 2.51762e+53 10.6111 3.95867 2.80707e+51 11.9445 2.95401 1.27088e+52
0.00955127 12.1198 4.71744 2.4814e+53 10.6329 3.96509 2.92015e+51 11.968 2.95467 1.28499e+52
0.00965127 12.0861 4.7019 2.44618e+53 10.6533 3.97181 3.03486e+51 11.9912 2.9554 1.29897e+52
0.00975127 12.0518 4.68745 2.41238e+53 10.6718 3.97899 3.15188e+51 12.014 2.95622 1.31274e+52
0.00985127 12.0176 4.673 2.37858e+53 10.6904 3.98617 3.2689e+51 12.0368 2.95704 1.3265e+52
0.00995127 11.9835 4.66082 2.34653e+53 10.7052 3.99347 3.38664e+51 12.0582 2.95718 1.33921e+52
0.0100513 11.9494 4.64894 2.31471e+53 10.7195 4.00079 3.50447e+51 12.0795 2.95723 1.35178e+52
0.0101513 11.9154 4.63738 2.28344e+53 10.7334 4.00772 3.62383e+51 12.1001 2.95738 1.36422e+52
0.0102513 11.8815 4.62645 2.2533e+53 10.7464 4.01384 3.74633e+51 12.1191 2.95773 1.37637e+52
0.0103513 11.8476 4.61553 2.22315e+53 10.7595 4.01996 3.86884e+51 12.138 2.95808 1.38852e+52
0.0104513 11.8142 4.60662 2.19398e+53 10.7717 4.02677 3.9955e+51 12.1564 2.95927 1.40077e+52
0.0105513 11.781 4.59831 2.1651e+53 10.7837 4.03378 4.1234e+51 12.1747 2.96072 1.41304e+52
0.0106513 11.7472 4.59024 2.13604e+53 10.795 4.04152 4.25233e+51 12.1926 2.96234 1.42535e+52
0.0107513 11.7114 4.58306 2.10635e+53 10.8033 4.05191 4.38506e+51 12.2088 2.96459 1.43779e+52
0.0108513 11.6757 4.57588 2.07666e+53 10.8117 4.0623 4.51778e+51 12.2251 2.96684 1.45024e+52
0.0109513 11.6393 4.57103 2.04861e+53 10.82 4.07323 4.65639e+51 12.2406 2.96938 1.46311e+52
0.0110513 11.6028 4.56739 2.02142e+53 10.8283 4.08445 4.79807e+51 12.2557 2.97206 1.47622e+52
0.0111513 11.5665 4.5641 1.99447e+53 10.8369 4.09533 4.94071e+51 12.2711 2.97468 1.48939e+52
0.0112513 11.5331 4.56377 1.96953e+53 10.8488 4.10322 5.09195e+51 12.2885 2.9768 1.50317e+52
0.0113513 11.4996 4.56344 1.94458e+53 10.8607 4.1111 5.24318e+51 12.3059 2.97892 1.51695e+52
0.0114513 11.4671 4.56273 1.92043e+53 10.873 4.11665 5.39881e+51 12.3223 2.98117 1.53082e+52
0.0115513 11.4353 4.56171 1.89694e+53 10.8857 4.12026 5.5581e+51 12.3379 2.98352 1.54477e+52
0.0116513 11.4035 4.56068 1.87345e+53 10.8983 4.12387 5.71739e+51 12.3535 2.98587 1.55873e+52
0.0117513 11.3753 4.56056 1.85322e+53 10.9111 4.12855 5.88415e+51 12.3678 2.98988 1.57325e+52
0.0118513 11.3472 4.56046 1.83304e+53 10.9239 4.13323 6.051e+51 12.3821 2.9939 1.58778e+52
0.0119513 11.3209 4.56153 1.8138e+53 10.9373 4.13904 6.22021e+51 12.3982 2.99807 1.60288e+52
0.0120513 11.297 4.56413 1.7958e+53 10.9514 4.14633 6.39252e+51 12.4167 3.00244 1.61874e+52
0.0121513 11.273 4.56674 1.7778e+53 10.9655 4.15361 6.56484e+51 12.4352 3.00681 1.6346e+52
0.0122513 11.2494 4.57018 1.76013e+53 10.9769 4.16132 6.73431e+51 12.4548 3.00985 1.65046e+52
0.0123513 11.2259 4.57372 1.74251e+53 10.9879 4.16908 6.90337e+51 12.4745 3.01269 1.66631e+52
0.0124513 11.2026 4.57657 1.72551e+53 10.9974 4.17664 7.0707e+51 12.4928 3.01544 1.68184e+52
0.0125513 11.1798 4.57791 1.70983e+53 11.0036 4.18373 7.23436e+51 12.5078 3.01797 1.69668e+52
0.0126513 11.157 4.57926 1.69414e+53 11.0098 4.19083 7.39801e+51 12.5228 3.02049 1.71152e+52
0.0127513 11.1358 4.57828 1.67961e+53 11.0159 4.19606 7.56289e+51 12.5357 3.02408 1.72638e+52
0.0128513 11.1151 4.57658 1.66543e+53 11.0219 4.20071 7.72815e+51 12.5479 3.028 1.74126e+52
0.0129513 11.0949 4.57519 1.65145e+53 11.0285 4.20536 7.89429e+51 12.5607 3.03217 1.75642e+52
0.0130513 11.0765 4.57499 1.63821e+53 11.0371 4.21003 8.06375e+51 12.576 3.03725 1.77268e+52
0.0131513 11.0581 4.57478 1.62497e+53 11.0458 4.2147 8.23322e+51 12.5912 3.04234 1.78893e+52
0.0132513 11.0396 4.57524 1.61143e+53 11.054 4.22012 8.39968e+51 12.6088 3.04631 1.80535e+52
0.0133513 11.0211 4.57605 1.59772e+53 11.062 4.22593 8.56455e+51 12.6275 3.04969 1.82185e+52
0.0134513 11.0024 4.57654 1.58394e+53 11.0696 4.23164 8.72829e+51 12.6461 3.05283 1.83818e+52
0.0135513 10.9816 4.57407 1.56948e+53 11.0736 4.23634 8.88147e+51 12.6621 3.05378 1.85292e+52
0.0136513 10.9609 4.57159 1.55501e+53 11.0775 4.24105 9.03464e+51 12.6781 3.05474 1.86766e+52
0.0137513 10.9408 4.56797 1.54124e+53 11.0808 4.24536 9.18642e+51 12.6921 3.05612 1.88199e+52
0.0138513 10.921 4.56338 1.52805e+53 11.0835 4.24934 9.33701e+51 12.7042 3.05786 1.89598e+52
0.0139513 10.9013 4.55878 1.51487e+53 11.0862 4.25332 9.48761e+51 12.7164 3.0596 1.90996e+52
0.0140513 10.8839 4.55563 1.50322e+53 11.0901 4.25828 9.64262e+51 12.7281 3.06374 1.92474e+52
0.0141513 10.8665 4.55251 1.4916e+53 11.0941 4.26326 9.7977e+51 12.7397 3.06792 1.93954e+52
0.0142513 10.8489 4.54972 1.4799e+53 11.0982 4.26832 9.95294e+51 12.7522 3.07218 1.95465e+52
0.0143513 10.8311 4.54747 1.46806e+53 11.1027 4.27351 1.01084e+52 12.7658 3.07656 1.97026e+52
0.0144513 10.8133 4.54522 1.45622e+53 11.1072 4.2787 1.02639e+52 12.7795 3.08094 1.98588e+52
0.0145513 10.7949 4.54222 1.44443e+53 11.1108 4.2821 1.04115e+52 12.7934 3.08293 2.00011e+52
0.0146513 10.7764 4.5391 1.43264e+53 11.1143 4.28523 1.05578e+52 12.8074 3.08455 2.01413e+52
0.0147513 10.7584 4.53583 1.42128e+53 11.1176 4.28816 1.07021e+52 12.8207 3.08572 2.02758e+52
0.0148513 10.7415 4.53231 1.41072e+53 11.1205 4.29069 1.08426e+52 12.8327 3.08605 2.03995e+52
0.0149513 10.7246 4.52878 1.40016e+53 11.1234 4.29322 1.09832e+52 12.8446 3.08638 2.05233e+52
0.0150513 10.7092 4.52616 1.39062e+53 11.1265 4.2973 1.11271e+52 12.8547 3.08822 2.0647e+52
0.0151513 10.6942 4.52373 1.38129e+53 11.1298 4.3017 1.12718e+52 12.8645 3.09035 2.07708e+52
0.0152513 10.6786 4.52098 1.37167e+53 11.1328 4.306 1.14174e+52 12.8736 3.09284 2.0895e+52
0.0153513 10.6613 4.51732 1.36117e+53 11.1351 4.31005 1.15663e+52 12.8809 3.09638 2.10207e+52
0.0154513 10.6441 4.51366 1.35067e+53 11.1374 4.3141 1.17152e+52 12.8882 3.09993 2.11465e+52
0.0155513 10.6244 4.50659 1.33876e+53 11.1399 4.31459 1.18637e+52 12.8959 3.10189 2.12676e+52
0.0156513 10.6036 4.49803 1.32624e+53 11.1425 4.31351 1.20121e+52 12.9037 3.10316 2.13867e+52
0.0157513 10.5833 4.48957 1.31395e+53 11.1454 4.31235 1.21597e+52 12.9119 3.10409 2.15038e+52
0.0158513 10.5652 4.48166 1.30293e+53 11.1497 4.31078 1.23029e+52 12.9226 3.10318 2.16109e+52
0.0159513 10.5471 4.47374 1.29191e+53 11.1541 4.30921 1.24461e+52 12.9333 3.10227 2.17179e+52
0.0160513 10.5316 4.46844 1.28229e+53 11.1586 4.30989 1.25868e+52 12.9443 3.10217 2.1824e+52
0.0161513 10.518 4.46501 1.27367e+53 11.1631 4.31216 1.27255e+52 12.9555 3.10266 2.19295e+52
0.0162513 10.5043 4.46163 1.26502e+53 11.1676 4.31445 1.28643e+52 12.9666 3.10321 2.20351e+52
0.0163513 10.4891 4.46032 1.2555e+53 11.1717 4.31705 1.30032e+52 12.9753 3.10621 2.21423e+52
0.0164513 10.4739 4.459 1.24597e+53 11.1758 4.31965 1.3142e+52 12.9841 3.1092 2.22496e+52
0.0165513 10.456 4.45795 1.2354e+53 11.1797 4.31993 1.32817e+52 12.9901 3.11276 2.235e+52
0.0166513 10.4355 4.45713 1.22387e+53 11.1837 4.31806 1.34222e+52 12.9935 3.11686 2.24441e+52
0.0167513 10.4151 4.45631 1.21234e+53 11.1876 4.31619 1.35627e+52 12.9969 3.12095 2.25382e+52
0.0168513 10.3955 4.45516 1.20177e+53 11.1911 4.31394 1.37019e+52 12.9994 3.12331 2.26246e+52
0.0169513 10.376 4.45401 1.1912e+53 11.1946 4.31169 1.38412e+52 13.0018 3.12567 2.2711e+52
0.0170513 10.3591 4.45282 1.18191e+53 11.1976 4.31204 1.39786e+52 13.0065 3.12677 2.28e+52
0.0171513 10.3454 4.45157 1.17411e+53 11.2001 4.31543 1.41139e+52 13.0137 3.12643 2.28919e+52
0.0172513 10.3317 4.45032 1.1663e+53 11.2025 4.31881 1.42492e+52 13.0209 3.12608 2.29839e+52
0.0173513 10.3212 4.4495 1.15968e+53 11.2049 4.32497 1.43856e+52 13.0303 3.12627 2.30829e+52
0.0174513 10.311 4.44872 1.1532e+53 11.2072 4.33145 1.45221e+52 13.0399 3.12653 2.31827e+52
0.0175513 10.2996 4.44764 1.14613e+53 11.2099 4.3362 1.46608e+52 13.0484 3.12743 2.3281e+52
0.0176513 10.286 4.44597 1.13795e+53 11.2131 4.33773 1.48034e+52 13.0546 3.12953 2.33764e+52
0.0177513 10.2723 4.4443 1.12977e+53 11.2162 4.33925 1.49461e+52 13.0609 3.13162 2.34719e+52
0.0178513 10.2547 4.44206 1.12023e+53 11.2212 4.33445 1.50953e+52 13.0631 3.13384 2.35539e+52
0.0179513 10.2364 4.43971 1.11043e+53 11.2266 4.32847 1.52457e+52 13.0647 3.13608 2.36333e+52
0.0180513 10.2185 4.43758 1.10102e+53 11.2321 4.32278 1.53969e+52 13.0658 3.13827 2.37102e+52
0.0181513 10.2018 4.43592 1.09252e+53 11.2381 4.31777 1.555e+52 13.0659 3.1403 2.37812e+52
0.0182513 10.185 4.43427 1.08401e+53 11.244 4.31277 1.57031e+52 13.066 3.14233 2.38522e+52
0.0183513 10.1724 4.43242 1.07751e+53 11.2479 4.31376 1.58511e+52 13.0677 3.14414 2.39268e+52
0.0184513 10.1612 4.43052 1.07166e+53 11.2512 4.31668 1.59975e+52 13.07 3.14588 2.40025e+52
0.0185513 10.1509 4.42856 1.06612e+53 11.2543 4.32049 1.61423e+52 13.0736 3.14737 2.40807e+52
0.0186513 10.1443 4.42638 1.06173e+53 11.2571 4.32746 1.62817e+52 13.0817 3.14794 2.41676e+52
0.0187513 10.1378 4.4242 1.05734e+53 11.26 4.33442 1.64211e+52 13.0898 3.14852 2.42545e+52
0.0188513 10.1306 4.42306 1.05237e+53 11.2637 4.33957 1.65598e+52 13.0992 3.14883 2.43426e+52
0.0189513 10.1231 4.42268 1.04696e+53 11.2681 4.3434 1.6698e+52 13.1095 3.14894 2.44317e+52
0.0190513 10.1154 4.42229 1.04151e+53 11.2726 4.34697 1.68364e+52 13.1196 3.14905 2.45204e+52
0.0191513 10.1035 4.42174 1.03456e+53 11.2776 4.34402 1.69807e+52 13.1252 3.14926 2.45999e+52
0.0192513 10.0916 4.42118 1.02761e+53 11.2827 4.34107 1.7125e+52 13.1307 3.14947 2.46795e+52
0.0193513 10.0791 4.41935 1.02064e+53 11.2886 4.33585 1.7275e+52 13.1343 3.14963 2.47542e+52
0.0194513 10.0662 4.41643 1.01366e+53 11.2952 4.32866 1.74301e+52 13.1361 3.14976 2.48248e+52
0.0195513 10.0533 4.41346 1.00671e+53 11.3018 4.32151 1.75854e+52 13.138 3.14989 2.48953e+52
0.0196513 10.0418 4.40909 1.00062e+53 11.3093 4.31549 1.77468e+52 13.1393 3.15034 2.49626e+52
0.0197513 10.0303 4.40472 9.9454e+52 11.3169 4.30946 1.79081e+52 13.1406 3.1508 2.503e+52
0.0198513 10.0195 4.40017 9.88931e+52 11.3234 4.30547 1.8065e+52 13.1424 3.15112 2.50979e+52
0.0199513 10.0096 4.39546 9.83762e+52 11.3291 4.30337 1.82177e+52 13.1446 3.15132 2.51663e+52
0.0200513 9.99958 4.39075 9.78592e+52 11.3348 4.30127 1.83703e+52 13.1469 3.15153 2.52347e+52
0.0201513 9.99142 4.38652 9.74025e+52 11.3372 4.30394 1.85047e+52 13.1511 3.1519 2.53109e+52
0.0202513 9.98332 4.3823 9.69482e+52 11.3394 4.30679 1.86384e+52 13.1553 3.15228 2.53874e+52
0.0203513 9.97528 4.37867 9.64869e+52 11.3412 4.31122 1.87704e+52 13.16 3.15361 2.54677e+52
0.0204513 9.96733 4.3761 9.60132e+52 11.3424 4.31848 1.88995e+52 13.1653 3.15664 2.5555e+52
