# If you use this flux, cite http://wwwmpa.mpa-garching.mpg.de/ccsnarchive/data/Huedepohl2014_phd_thesis/, 
# Huedepohl, L. (2014), Neutrinos from the Formation, Cooling and Black Hole Collapse of Neutron Stars, PhD. Thesis, Technische Universitat Muenchen
# time (s), <energy> (MeV), alpha, luminosity (foe/s), for nu_e, nu_e_bar, nu_mu
-0.000493062 8.51421 6.06131 9.93764e+52 0 0 0 0 0 0
-0.000393062 8.53508 6.05484 9.98276e+52 4.10195 0.38825 1.02903e+45 6.44682 1.64963 1.0053e+45
-0.000293062 8.55633 6.04885 1.00217e+53 3.37762 0.318448 1.14515e+45 5.4943 0.971915 1.03599e+45
-0.000193062 8.57795 6.04343 1.00539e+53 3.07282 0.393709 1.32759e+45 4.90724 0.708059 1.08326e+45
-9.30619e-05 8.59997 6.03867 1.00787e+53 2.9143 0.509719 1.5889e+45 4.51058 0.588193 1.14808e+45
6.93806e-06 8.62236 6.03457 1.00955e+53 2.82806 0.64516 1.94519e+45 4.23018 0.540932 1.23408e+45
0.000106938 8.64502 6.03113 1.01183e+53 2.78717 0.791752 2.43028e+45 4.03154 0.540023 1.35148e+45
0.000206938 8.66799 6.02845 1.01152e+53 2.77718 0.941335 3.03872e+45 3.89372 0.570147 1.49706e+45
0.000306938 8.69124 6.02646 1.01014e+53 2.78862 1.08177 3.80957e+45 3.80218 0.622263 1.6785e+45
0.000406938 8.71468 6.02509 1.00768e+53 2.81669 1.20526 4.74783e+45 3.71587 1.00161 2.21436e+45
0.000506938 8.73839 6.02435 1.00411e+53 2.85902 1.30888 5.84762e+45 3.33226 2.35025 6.19666e+45
0.000606938 8.76246 6.02432 9.99386e+52 2.91247 1.39188 7.09138e+45 3.26085 3.59991 2.29594e+46
0.000706938 8.78691 6.02503 9.93433e+52 2.97321 1.45511 8.45481e+45 3.31533 4.17447 7.59018e+46
0.000806938 8.81175 6.02652 9.86076e+52 3.03693 1.50104 9.90885e+45 3.44852 4.42169 2.09091e+47
0.000906938 8.83695 6.02875 9.77273e+52 3.09948 1.53557 1.14204e+46 3.51443 4.35365 4.89765e+47
0.00100694 8.86249 6.0317 9.66997e+52 3.15858 1.56406 1.29785e+46 3.60384 4.31654 1.05396e+48
0.00110694 8.88836 6.03534 9.55184e+52 3.23534 1.62222 1.48504e+46 3.69406 4.34196 2.19613e+48
0.00120694 8.91451 6.03969 9.41801e+52 3.5887 2.27227 2.14112e+46 3.7823 4.43607 4.45993e+48
0.00130694 8.94089 6.04474 9.26824e+52 4.10112 3.80705 4.41406e+46 3.86086 4.51291 8.81086e+48
0.00140694 8.96744 6.05031 9.10341e+52 4.3695 5.02153 9.41011e+46 3.92802 4.60476 1.63828e+49
0.00150694 8.99419 6.05639 8.922e+52 4.44162 5.41463 1.95141e+47 3.99286 4.72856 2.93572e+49
0.00160694 9.02133 6.06321 8.72404e+52 4.47063 5.37231 3.86582e+47 4.06545 4.84944 5.0044e+49
0.00170694 9.04916 6.07154 8.51027e+52 4.49492 5.29828 7.33132e+47 4.15356 4.95118 7.9832e+49
0.00180694 9.07798 6.08242 8.28217e+52 4.52555 5.2472 1.33314e+48 4.25944 4.98695 1.17998e+50
0.00190694 9.10784 6.09634 8.04191e+52 4.56243 5.22472 2.28645e+48 4.38042 4.93224 1.62165e+50
0.00200694 9.13821 6.11218 7.79159e+52 4.64124 5.17503 3.64036e+48 4.51694 4.80131 2.10305e+50
0.00210694 9.16708 6.12484 7.54027e+52 4.74598 5.09145 5.05242e+48 4.66259 4.65569 2.60164e+50
0.00220694 9.19464 6.1347 7.28809e+52 4.87347 4.97814 6.51551e+48 4.81625 4.49719 3.11534e+50
0.00230694 9.21422 6.12854 7.05075e+52 5.0188 4.80137 7.75677e+48 4.99593 4.31416 3.67311e+50
0.00240694 9.22912 6.11473 6.82702e+52 5.16555 4.61049 8.90403e+48 5.18746 4.13036 4.26265e+50
0.00250694 9.23515 6.08693 6.63083e+52 5.31205 4.40028 9.88391e+48 5.40044 3.94956 4.91469e+50
0.00260694 9.23303 6.05253 6.48116e+52 5.45127 4.19433 1.07746e+49 5.63164 3.78534 5.66798e+50
0.00270694 9.22709 6.016 6.35967e+52 5.58619 3.99222 1.16223e+49 5.87265 3.63129 6.48134e+50
0.00280694 9.21824 5.9872 6.32326e+52 5.70893 3.81126 1.24223e+49 6.13389 3.50882 7.46663e+50
0.00290694 9.2143 5.9681 6.34197e+52 5.82498 3.64547 1.32127e+49 6.40023 3.40803 8.54997e+50
0.00300694 9.21578 5.95975 6.42168e+52 5.9336 3.49645 1.39925e+49 6.6722 3.33124 9.74186e+50
0.00310694 9.23779 5.96667 6.61795e+52 6.03224 3.37531 1.47755e+49 6.94487 3.283 1.11126e+51
0.00320694 9.27131 5.97652 6.87055e+52 6.12736 3.26597 1.55704e+49 7.21595 3.24522 1.25595e+51
0.00330694 9.32941 5.98786 7.23581e+52 6.21673 3.17864 1.63995e+49 7.48196 3.22507 1.41488e+51
0.00340694 9.4102 5.99046 7.70434e+52 6.30424 3.10696 1.72975e+49 7.74048 3.21351 1.58428e+51
0.00350694 9.50464 5.98782 8.23574e+52 6.39077 3.0447 1.82394e+49 7.9944 3.20689 1.75996e+51
0.00360694 9.62919 5.97414 8.92948e+52 6.47963 3.00328 1.93637e+49 8.23539 3.20398 1.94888e+51
0.00370694 9.7649 5.95475 9.70282e+52 6.57234 2.9714 2.06309e+49 8.47014 3.19998 2.14278e+51
0.00380694 9.91735 5.92679 1.05954e+53 6.67081 2.9538 2.21122e+49 8.69555 3.19433 2.34413e+51
0.00390694 10.0729 5.89804 1.1524e+53 6.77196 2.94036 2.36944e+49 8.9182 3.18771 2.54694e+51
0.00400694 10.2438 5.86535 1.26341e+53 6.88659 2.94784 2.57849e+49 9.12688 3.17617 2.75708e+51
0.00410694 10.4147 5.83266 1.37442e+53 7.00122 2.95533 2.78754e+49 9.33556 3.16462 2.96722e+51
0.00420694 10.5928 5.80211 1.50441e+53 7.13298 2.98456 3.08457e+49 9.52892 3.14469 3.17944e+51
0.00430694 10.771 5.77155 1.63446e+53 7.2648 3.01387 3.38193e+49 9.72222 3.12472 3.39166e+51
0.00440694 10.9481 5.7447 1.77615e+53 7.40868 3.05831 3.78331e+49 9.90273 3.09702 3.59925e+51
0.00450694 11.1249 5.71862 1.92026e+53 7.55509 3.10592 4.20649e+49 10.0806 3.0677 3.80588e+51
0.00460694 11.2961 5.69577 2.06832e+53 7.70642 3.16174 4.7409e+49 10.2477 3.03311 4.00359e+51
0.00470694 11.4642 5.67459 2.21842e+53 7.86031 3.22185 5.33331e+49 10.4093 2.99576 4.19666e+51
0.00480694 11.6254 5.65535 2.36682e+53 8.01355 3.28478 6.03132e+49 10.5624 2.95607 4.38062e+51
0.00490694 11.7794 5.63812 2.51342e+53 8.16609 3.35069 6.84021e+49 10.7066 2.9139 4.55504e+51
0.00500694 11.9278 5.62189 2.65626e+53 8.3156 3.41617 7.73215e+49 10.8451 2.87113 4.72309e+51
0.00510694 12.0646 5.60781 2.79105e+53 8.45859 3.48077 8.80198e+49 10.9714 2.82708 4.87749e+51
0.00520694 12.1987 5.59415 2.92317e+53 8.59942 3.54431 9.91673e+49 11.0951 2.7831 5.02896e+51
0.00530694 12.3177 5.58286 3.04004e+53 8.72785 3.60176 1.12884e+50 11.2043 2.73957 5.16369e+51
0.00540694 12.4366 5.57158 3.15691e+53 8.85628 3.65922 1.266e+50 11.3134 2.69603 5.29842e+51
0.00550694 12.5379 5.56218 3.25259e+53 8.96769 3.70678 1.43662e+50 11.4067 2.65436 5.41484e+51
0.00560694 12.638 5.55292 3.34682e+53 9.07792 3.75366 1.60953e+50 11.4989 2.61281 5.53e+51
0.00570694 12.7302 5.54417 3.43039e+53 9.17949 3.7946 1.79904e+50 11.5843 2.57253 5.63741e+51
0.00580694 12.8115 5.53613 3.49959e+53 9.26936 3.82751 2.01096e+50 11.6605 2.53397 5.73436e+51
0.00590694 12.8929 5.52809 3.5688e+53 9.35923 3.86043 2.22287e+50 11.7368 2.4954 5.8313e+51
0.00600694 12.9583 5.52022 3.61573e+53 9.43395 3.88533 2.47409e+50 11.8004 2.4601 5.91465e+51
0.00610694 13.0223 5.51236 3.66061e+53 9.50728 3.90948 2.72894e+50 11.8629 2.4251 5.99674e+51
0.00620694 13.0799 5.5044 3.69651e+53 9.57435 3.93098 3.0006e+50 11.9206 2.39164 6.07406e+51
0.00630694 13.1282 5.49627 3.71926e+53 9.63227 3.94856 3.29689e+50 11.9713 2.36043 6.14439e+51
0.00640694 13.1766 5.48814 3.74201e+53 9.69018 3.96615 3.59318e+50 12.022 2.32922 6.21472e+51
0.00650694 13.2124 5.4793 3.74825e+53 9.73689 3.979 3.92802e+50 12.064 2.30149 6.2782e+51
0.00660694 13.2468 5.47037 3.75258e+53 9.7823 3.9913 4.26735e+50 12.1049 2.27416 6.34087e+51
0.00670694 13.2763 5.46105 3.75124e+53 9.82441 4.00232 4.62408e+50 12.1429 2.24832 6.40197e+51
0.00680694 13.2981 5.45112 3.74087e+53 9.86127 4.0113 5.00855e+50 12.1762 2.22483 6.46055e+51
0.00690694 13.3199 5.44118 3.7305e+53 9.89814 4.02029 5.39301e+50 12.2094 2.20135 6.51912e+51
0.00700694 13.333 5.43025 3.70969e+53 9.92684 4.02719 5.81135e+50 12.2382 2.18099 6.57549e+51
0.00710694 13.3448 5.41919 3.68739e+53 9.95438 4.0338 6.2345e+50 12.2664 2.16108 6.63154e+51
0.00720694 13.3535 5.40769 3.66215e+53 9.97865 4.03879 6.66877e+50 12.2933 2.14238 6.68764e+51
0.00730694 13.3569 5.39544 3.63181e+53 9.99726 4.04097 7.12233e+50 12.318 2.12581 6.74383e+51
0.00740694 13.3603 5.38318 3.60147e+53 10.0159 4.04315 7.5759e+50 12.3427 2.10924 6.80003e+51
0.00750694 13.3576 5.36999 3.56603e+53 10.029 4.04144 8.05622e+50 12.3656 2.09531 6.85868e+51
0.00760694 13.3538 5.35664 3.52973e+53 10.0413 4.03908 8.54106e+50 12.3882 2.08183 6.91774e+51
0.00770694 13.3476 5.34344 3.49225e+53 10.0537 4.03597 9.04083e+50 12.4103 2.06913 6.97785e+51
0.00780694 13.3368 5.33052 3.45253e+53 10.0666 4.03145 9.56887e+50 12.4316 2.05791 7.03995e+51
0.00790694 13.326 5.31761 3.41281e+53 10.0794 4.02693 1.00969e+51 12.4528 2.04669 7.10205e+51
0.00800694 13.312 5.30538 3.3718e+53 10.0888 4.0241 1.06483e+51 12.4742 2.03748 7.168e+51
0.00810694 13.2973 5.29328 3.33054e+53 10.0976 4.02161 1.12042e+51 12.4956 2.02867 7.23471e+51
0.00820694 13.2812 5.28102 3.28906e+53 10.1048 4.01959 1.17683e+51 12.5171 2.02034 7.30281e+51
0.00830694 13.2621 5.26842 3.24712e+53 10.1091 4.01853 1.23491e+51 12.5389 2.01301 7.37382e+51
0.00840694 13.243 5.25581 3.20519e+53 10.1134 4.01747 1.29299e+51 12.5607 2.00569 7.44483e+51
0.00850694 13.2221 5.24255 3.16295e+53 10.1182 4.01697 1.35394e+51 12.5834 1.99986 7.52123e+51
0.00860694 13.2007 5.22912 3.12064e+53 10.1231 4.01662 1.41561e+51 12.6065 1.99442 7.59901e+51
0.00870694 13.1781 5.21549 3.0782e+53 10.1281 4.01676 1.47817e+51 12.6298 1.98927 7.67801e+51
0.00880694 13.1517 5.20129 3.03541e+53 10.1332 4.01838 1.54333e+51 12.6541 1.98497 7.7606e+51
0.00890694 13.1253 5.18709 2.99261e+53 10.1383 4.02 1.60849e+51 12.6784 1.98067 7.8432e+51
0.00900694 13.0982 5.17454 2.95141e+53 10.147 4.0219 1.67737e+51 12.7038 1.97707 7.9289e+51
0.00910694 13.0709 5.16267 2.91087e+53 10.1571 4.0239 1.74776e+51 12.7296 1.97375 8.01587e+51
0.00920694 13.0433 5.15059 2.87042e+53 10.1676 4.02559 1.81878e+51 12.7555 1.97053 8.10352e+51
0.00930694 13.014 5.13746 2.83044e+53 10.1802 4.02565 1.89296e+51 12.7819 1.96777 8.19457e+51
0.00940694 12.9847 5.12433 2.79047e+53 10.1927 4.02571 1.96713e+51 12.8083 1.96502 8.28562e+51
0.00950694 12.9548 5.11082 2.75183e+53 10.2013 4.02768 2.04143e+51 12.8347 1.96247 8.3789e+51
0.00960694 12.9243 5.09709 2.71401e+53 10.2075 4.03082 2.1158e+51 12.8611 1.96006 8.47355e+51
0.00970694 12.8938 5.08315 2.67612e+53 10.2133 4.03424 2.19026e+51 12.8876 1.95771 8.5686e+51
0.00980694 12.8622 5.0667 2.63741e+53 10.2156 4.04106 2.26575e+51 12.9153 1.95615 8.66862e+51
0.00990694 12.8306 5.05025 2.5987e+53 10.2178 4.04788 2.34123e+51 12.943 1.95459 8.76863e+51
0.0100069 12.7973 5.03441 2.56086e+53 10.2224 4.0528 2.41931e+51 12.9711 1.95326 8.86968e+51
0.0101069 12.7623 5.01911 2.5238e+53 10.229 4.05603 2.49966e+51 12.9993 1.95212 8.97164e+51
0.0102069 12.7273 5.0038 2.48673e+53 10.2356 4.05927 2.58002e+51 13.0276 1.95098 9.0736e+51
0.0103069 12.6955 4.99312 2.45345e+53 10.246 4.06073 2.66481e+51 13.0567 1.95062 9.1789e+51
0.0104069 12.6638 4.98249 2.42023e+53 10.2564 4.06218 2.74965e+51 13.0858 1.95026 9.28423e+51
0.0105069 12.6315 4.97089 2.38682e+53 10.265 4.06498 2.83465e+51 13.1147 1.95 9.39052e+51
0.0106069 12.5986 4.95805 2.35319e+53 10.2714 4.06949 2.91982e+51 13.1435 1.94987 9.49802e+51
0.0107069 12.5657 4.94521 2.31955e+53 10.2777 4.07401 3.005e+51 13.1722 1.94973 9.60552e+51
0.0108069 12.5322 4.93193 2.28737e+53 10.2804 4.0821 3.0902e+51 13.1999 1.94952 9.71249e+51
0.0109069 12.4985 4.91859 2.25535e+53 10.2827 4.0906 3.1754e+51 13.2274 1.9493 9.81941e+51
0.0110069 12.4651 4.90539 2.2236e+53 10.2851 4.09949 3.26129e+51 13.2553 1.9494 9.92811e+51
0.0111069 12.4319 4.89242 2.19234e+53 10.2875 4.10912 3.34842e+51 13.2835 1.9501 1.004e+52
0.0112069 12.3987 4.87946 2.16108e+53 10.29 4.11875 3.43556e+51 13.3117 1.95079 1.0152e+52
0.0113069 12.3622 4.86787 2.13055e+53 10.2919 4.12795 3.52233e+51 13.3391 1.95134 1.02623e+52
0.0114069 12.3252 4.85656 2.10015e+53 10.2938 4.13707 3.60902e+51 13.3663 1.95186 1.03724e+52
0.0115069 12.2887 4.8464 2.07073e+53 10.2962 4.14586 3.69636e+51 13.3932 1.95235 1.04816e+52
0.0116069 12.2541 4.83948 2.04406e+53 10.3002 4.15368 3.78553e+51 13.4191 1.95279 1.05886e+52
0.0117069 12.2195 4.83257 2.01739e+53 10.3042 4.16151 3.8747e+51 13.4449 1.95322 1.06957e+52
0.0118069 12.1865 4.82523 1.99119e+53 10.311 4.16643 3.96879e+51 13.4706 1.95423 1.08046e+52
0.0119069 12.1544 4.8177 1.96522e+53 10.319 4.17005 4.0651e+51 13.4963 1.9555 1.09143e+52
0.0120069 12.1218 4.80977 1.93917e+53 10.3268 4.17366 4.16161e+51 13.5216 1.95674 1.10236e+52
0.0121069 12.0866 4.7988 1.91257e+53 10.3334 4.17718 4.25966e+51 13.5452 1.95781 1.11298e+52
0.0122069 12.0513 4.78784 1.88598e+53 10.3399 4.18071 4.35771e+51 13.5687 1.95888 1.12359e+52
0.0123069 12.0166 4.77763 1.86053e+53 10.3442 4.18763 4.45483e+51 13.5915 1.9601 1.13422e+52
0.0124069 11.9823 4.76805 1.83605e+53 10.3465 4.19739 4.55118e+51 13.6137 1.96145 1.14486e+52
0.0125069 11.9481 4.75846 1.81157e+53 10.3489 4.20714 4.64753e+51 13.6359 1.96281 1.1555e+52
0.0126069 11.9129 4.7485 1.78709e+53 10.3514 4.21587 4.74491e+51 13.6581 1.96445 1.16628e+52
0.0127069 11.8778 4.73852 1.7626e+53 10.354 4.22457 4.84232e+51 13.6803 1.96611 1.17706e+52
0.0128069 11.8425 4.72918 1.73896e+53 10.3579 4.23085 4.94018e+51 13.7019 1.9677 1.18753e+52
0.0129069 11.807 4.72078 1.71658e+53 10.3639 4.23351 5.03869e+51 13.7228 1.96922 1.19754e+52
0.0130069 11.7716 4.71237 1.69419e+53 10.3699 4.23617 5.1372e+51 13.7436 1.97073 1.20755e+52
0.0131069 11.7415 4.70846 1.67552e+53 10.3769 4.23908 5.2364e+51 13.7636 1.97272 1.21726e+52
0.0132069 11.7124 4.70546 1.65761e+53 10.3841 4.24204 5.33574e+51 13.7833 1.9748 1.22691e+52
0.0133069 11.6838 4.70223 1.63966e+53 10.3908 4.24607 5.43575e+51 13.8028 1.97704 1.23662e+52
0.0134069 11.6565 4.69833 1.62156e+53 10.3963 4.25315 5.53764e+51 13.8214 1.97972 1.24649e+52
0.0135069 11.6291 4.69443 1.60345e+53 10.4017 4.26023 5.63952e+51 13.84 1.9824 1.25636e+52
0.0136069 11.599 4.68769 1.58415e+53 10.4067 4.268 5.74433e+51 13.8567 1.98495 1.26589e+52
0.0137069 11.5676 4.67966 1.56431e+53 10.4115 4.27608 5.85046e+51 13.8725 1.98745 1.27525e+52
0.0138069 11.5362 4.67176 1.5446e+53 10.4165 4.28403 5.9572e+51 13.8883 1.99002 1.28459e+52
0.0139069 11.5055 4.6648 1.52595e+53 10.4239 4.291 6.06868e+51 13.9035 1.99307 1.29372e+52
0.0140069 11.4748 4.65784 1.5073e+53 10.4313 4.29796 6.18015e+51 13.9187 1.99611 1.30286e+52
0.0141069 11.4449 4.65272 1.48935e+53 10.4392 4.30404 6.29194e+51 13.9344 1.99959 1.31216e+52
0.0142069 11.4157 4.64914 1.47199e+53 10.4474 4.30937 6.40398e+51 13.9505 2.00342 1.32161e+52
0.0143069 11.3865 4.64556 1.45463e+53 10.4556 4.31471 6.51603e+51 13.9666 2.00725 1.33107e+52
0.0144069 11.3561 4.643 1.43814e+53 10.4622 4.31764 6.62236e+51 13.9802 2.01036 1.33975e+52
0.0145069 11.3256 4.64047 1.42167e+53 10.4687 4.3205 6.72852e+51 13.9937 2.01344 1.34842e+52
0.0146069 11.2969 4.6385 1.40636e+53 10.4753 4.3232 6.83379e+51 14.0062 2.01632 1.35676e+52
0.0147069 11.2708 4.63737 1.39278e+53 10.4818 4.32564 6.93771e+51 14.0173 2.01889 1.3646e+52
0.0148069 11.2446 4.63625 1.3792e+53 10.4884 4.32808 7.04164e+51 14.0283 2.02146 1.37244e+52
0.0149069 11.2235 4.63554 1.36734e+53 10.4961 4.3323 7.15007e+51 14.0402 2.02468 1.38056e+52
0.0150069 11.2033 4.63492 1.35585e+53 10.504 4.3369 7.25944e+51 14.0523 2.02803 1.38873e+52
0.0151069 11.1826 4.63316 1.34379e+53 10.512 4.34166 7.37056e+51 14.0646 2.03146 1.397e+52
0.0152069 11.1602 4.62862 1.33036e+53 10.52 4.34681 7.48594e+51 14.0771 2.03507 1.40553e+52
0.0153069 11.1379 4.62408 1.31692e+53 10.5281 4.35197 7.60132e+51 14.0897 2.03867 1.41405e+52
0.0154069 11.1116 4.61765 1.30232e+53 10.5355 4.35591 7.71788e+51 14.1007 2.04175 1.42224e+52
0.0155069 11.084 4.61062 1.28734e+53 10.5428 4.35945 7.83484e+51 14.1114 2.04467 1.43031e+52
0.0156069 11.057 4.60436 1.27289e+53 10.55 4.36319 7.95201e+51 14.1219 2.04756 1.43834e+52
0.0157069 11.0319 4.60093 1.26042e+53 10.5573 4.36766 8.06997e+51 14.1322 2.05043 1.44623e+52
0.0158069 11.0068 4.59751 1.24794e+53 10.5647 4.37213 8.18792e+51 14.1424 2.05329 1.45412e+52
0.0159069 10.9855 4.59479 1.23713e+53 10.5727 4.37539 8.30698e+51 14.1535 2.05612 1.46218e+52
0.0160069 10.9657 4.59238 1.22701e+53 10.5812 4.37815 8.42651e+51 14.165 2.05893 1.4703e+52
0.0161069 10.9459 4.58922 1.21674e+53 10.5899 4.37971 8.54601e+51 14.1765 2.0616 1.47838e+52
0.0162069 10.9255 4.58188 1.20567e+53 10.6001 4.37446 8.66537e+51 14.1882 2.06347 1.48624e+52
0.0163069 10.9051 4.57455 1.1946e+53 10.6103 4.36921 8.78472e+51 14.2 2.06533 1.49411e+52
0.0164069 10.8835 4.56756 1.18335e+53 10.6203 4.36325 8.90205e+51 14.2103 2.06699 1.50133e+52
0.0165069 10.8612 4.5608 1.172e+53 10.63 4.35687 9.01814e+51 14.2198 2.06853 1.50817e+52
0.0166069 10.8391 4.55431 1.16078e+53 10.6396 4.35088 9.13425e+51 14.2291 2.07009 1.51497e+52
0.0167069 10.8206 4.55193 1.15159e+53 10.6478 4.35084 9.25066e+51 14.2368 2.07212 1.52119e+52
0.0168069 10.8021 4.54956 1.1424e+53 10.656 4.3508 9.36708e+51 14.2444 2.07414 1.52742e+52
0.0169069 10.7856 4.54746 1.13374e+53 10.6643 4.35311 9.48603e+51 14.2529 2.07655 1.53387e+52
0.0170069 10.771 4.54561 1.12559e+53 10.6726 4.35762 9.60735e+51 14.2622 2.07931 1.54054e+52
0.0171069 10.7563 4.54376 1.11744e+53 10.681 4.36212 9.72867e+51 14.2714 2.08207 1.54721e+52
0.0172069 10.7392 4.54188 1.10794e+53 10.6907 4.36566 9.85485e+51 14.2822 2.08541 1.55462e+52
0.0173069 10.722 4.54 1.0984e+53 10.7004 4.36917 9.98123e+51 14.2931 2.08878 1.56207e+52
0.0174069 10.7022 4.53835 1.08831e+53 10.71 4.3701 1.01078e+52 14.3024 2.0919 1.56933e+52
0.0175069 10.6791 4.53699 1.07751e+53 10.7195 4.36767 1.02347e+52 14.3097 2.0947 1.57636e+52
0.0176069 10.6559 4.53563 1.06672e+53 10.729 4.36523 1.03617e+52 14.3171 2.0975 1.58338e+52
0.0177069 10.6339 4.53324 1.05713e+53 10.7375 4.36328 1.04848e+52 14.3227 2.09942 1.58963e+52
0.0178069 10.612 4.53075 1.04766e+53 10.7459 4.36137 1.06075e+52 14.3281 2.10126 1.59581e+52
0.0179069 10.5917 4.52807 1.03872e+53 10.7535 4.36181 1.07284e+52 14.334 2.10303 1.60193e+52
0.0180069 10.5747 4.52496 1.03102e+53 10.7595 4.36776 1.08448e+52 14.3409 2.10466 1.60794e+52
0.0181069 10.5578 4.52185 1.02331e+53 10.7655 4.3737 1.09613e+52 14.3479 2.10628 1.61394e+52
0.0182069 10.5434 4.51901 1.0162e+53 10.7717 4.37983 1.10767e+52 14.3562 2.10785 1.6202e+52
0.0183069 10.5302 4.51631 1.00936e+53 10.7779 4.38603 1.11915e+52 14.365 2.10938 1.62658e+52
0.0184069 10.5169 4.5136 1.00249e+53 10.7841 4.39175 1.13066e+52 14.3737 2.11094 1.63298e+52
0.0185069 10.5033 4.51078 9.95335e+52 10.7905 4.39354 1.14234e+52 14.3814 2.11262 1.63955e+52
0.0186069 10.4896 4.50795 9.8818e+52 10.7968 4.39533 1.15402e+52 14.389 2.11431 1.64612e+52
0.0187069 10.4744 4.50428 9.80681e+52 10.8034 4.39532 1.166e+52 14.3949 2.11619 1.65238e+52
0.0188069 10.4579 4.49989 9.7289e+52 10.81 4.39379 1.17824e+52 14.3993 2.11823 1.65839e+52
0.0189069 10.4413 4.49551 9.651e+52 10.8167 4.39225 1.19047e+52 14.4037 2.12027 1.6644e+52
0.0190069 10.424 4.48982 9.57235e+52 10.8255 4.38871 1.20344e+52 14.4075 2.12232 1.66988e+52
0.0191069 10.4066 4.48409 9.49368e+52 10.8344 4.38512 1.21643e+52 14.4112 2.12438 1.67534e+52
0.0192069 10.3894 4.47799 9.41607e+52 10.8435 4.38211 1.22936e+52 14.4158 2.12605 1.68081e+52
0.0193069 10.3725 4.47147 9.33969e+52 10.8529 4.37979 1.24223e+52 14.4214 2.1273 1.6863e+52
0.0194069 10.3556 4.46494 9.26332e+52 10.8622 4.37747 1.25509e+52 14.427 2.12854 1.69179e+52
0.0195069 10.3407 4.45939 9.19249e+52 10.8692 4.38194 1.26685e+52 14.4358 2.12941 1.69773e+52
0.0196069 10.3259 4.45389 9.12201e+52 10.876 4.38684 1.27854e+52 14.4449 2.13026 1.70369e+52
0.0197069 10.3109 4.44993 9.05226e+52 10.8815 4.39402 1.28986e+52 14.4531 2.13175 1.70958e+52
0.0198069 10.2957 4.44825 8.98359e+52 10.885 4.40453 1.30064e+52 14.4602 2.13421 1.71535e+52
0.0199069 10.2804 4.44656 8.91491e+52 10.8884 4.41505 1.31141e+52 14.4672 2.13667 1.72113e+52
0.0200069 10.2651 4.44427 8.84991e+52 10.8924 4.41959 1.32219e+52 14.4702 2.13936 1.72603e+52
0.0201069 10.2498 4.44188 8.78548e+52 10.8963 4.42319 1.33297e+52 14.4726 2.14209 1.73079e+52
0.0202069 10.235 4.43879 8.72291e+52 10.9014 4.42395 1.34383e+52 14.4748 2.14444 1.73538e+52
0.0203069 10.2213 4.43425 8.66419e+52 10.9086 4.41878 1.35486e+52 14.4767 2.14601 1.73962e+52
0.0204069 10.2077 4.42971 8.60548e+52 10.9158 4.41362 1.36588e+52 14.4785 2.14757 1.74385e+52
