# If you use this flux, cite http://wwwmpa.mpa-garching.mpg.de/ccsnarchive/data/Huedepohl2014_phd_thesis/, 
# Huedepohl, L. (2014), Neutrinos from the Formation, Cooling and Black Hole Collapse of Neutron Stars, PhD. Thesis, Technische Universitat Muenchen
# time (s), <energy> (MeV), alpha, luminosity (foe/s), for nu_e, nu_e_bar, nu_mu
-0.000473401 8.41235 6.33283 1.02052e+53 0 0 0 0 0 0
-0.000373401 8.43501 6.31782 1.02541e+53 4.1273 0.419272 1.02929e+45 6.10948 1.47657 1.01518e+45
-0.000273401 8.45818 6.30339 1.02962e+53 3.31811 0.389705 1.20351e+45 5.00848 0.840413 1.05166e+45
-0.000173401 8.48184 6.28962 1.03307e+53 3.00459 0.528169 1.58089e+45 4.35329 0.656352 1.15762e+45
-7.34011e-05 8.50595 6.27656 1.03571e+53 2.86227 0.712824 2.11913e+45 3.9756 0.646493 1.33853e+45
2.65989e-05 8.53023 6.26431 1.03861e+53 2.80216 0.896008 2.82966e+45 3.75687 0.702835 1.59747e+45
0.000126599 8.55425 6.25256 1.03932e+53 2.77178 1.07508 3.66752e+45 3.61984 0.803474 1.93066e+45
0.000226599 8.57934 6.24206 1.03871e+53 2.76364 1.24072 4.67574e+45 3.53932 0.933628 2.3588e+45
0.000326599 8.60465 6.2324 1.03691e+53 2.77418 1.39152 5.88442e+45 3.50009 1.08347 2.89641e+45
0.000426599 8.63004 6.22368 1.03389e+53 2.79745 1.52344 7.26668e+45 3.48022 1.30255 3.64844e+45
0.000526599 8.65589 6.21603 1.02965e+53 2.82846 1.63093 8.78627e+45 3.29289 2.44997 8.0013e+45
0.000626599 8.68208 6.2094 1.0241e+53 2.86436 1.7116 1.04175e+46 3.22002 3.60107 2.70974e+46
0.000726599 8.70849 6.20377 1.01715e+53 2.90334 1.76765 1.21339e+46 3.30355 4.18283 8.88278e+46
0.000826599 8.73516 6.19924 1.00862e+53 2.94368 1.80316 1.39106e+46 3.47486 4.53264 2.5171e+47
0.000926599 8.76205 6.19579 9.98479e+52 2.98335 1.82536 1.5724e+46 3.57303 4.46721 6.03402e+47
0.0010266 8.78911 6.19332 9.86738e+52 3.03031 1.8463 1.76932e+46 3.65412 4.4154 1.30985e+48
0.0011266 8.8163 6.19181 9.73199e+52 3.4028 2.25397 2.47551e+46 3.7357 4.39498 2.77642e+48
0.0012266 8.84355 6.19106 9.58088e+52 4.09335 3.97578 5.20551e+46 3.82332 4.42308 5.44326e+48
0.0013266 8.87082 6.19113 9.41221e+52 4.47033 5.53764 1.26299e+47 3.8996 4.44477 1.0447e+49
0.0014266 8.89803 6.19188 9.22507e+52 4.55663 5.67278 2.88038e+47 3.98224 4.47004 1.95756e+49
0.0015266 8.9252 6.19325 9.01758e+52 4.60649 5.5839 6.35895e+47 4.06859 4.53468 3.62382e+49
0.0016266 8.95265 6.19587 8.79273e+52 4.64222 5.47714 1.30576e+48 4.16471 4.60519 6.31645e+49
0.0017266 8.98072 6.20083 8.55239e+52 4.67312 5.38762 2.48537e+48 4.27725 4.6506 1.0163e+50
0.0018266 9.00957 6.20863 8.29838e+52 4.70452 5.33037 4.25512e+48 4.40909 4.65494 1.51705e+50
0.0019266 9.0395 6.22121 8.02887e+52 4.77354 5.28207 7.33523e+48 4.57258 4.59037 2.20646e+50
0.0020266 9.06859 6.2329 7.75659e+52 4.86999 5.22738 1.08461e+49 4.75366 4.50686 2.999e+50
0.0021266 9.09585 6.24182 7.48264e+52 5.00928 5.15867 1.48653e+49 4.96049 4.4036 3.94179e+50
0.0022266 9.11526 6.2362 7.22763e+52 5.17821 5.03286 1.8621e+49 5.19752 4.30477 5.09329e+50
0.0023266 9.12979 6.22254 6.98889e+52 5.35966 4.88074 2.21928e+49 5.45069 4.20949 6.37336e+50
0.0024266 9.12897 6.18813 6.8215e+52 5.55385 4.68759 2.50972e+49 5.7427 4.12879 8.05137e+50
0.0025266 9.12749 6.15393 6.66845e+52 5.74685 4.49506 2.79537e+49 6.03722 4.05194 9.78505e+50
0.0026266 9.11942 6.12166 6.65838e+52 5.92796 4.30886 3.03314e+49 6.35674 4.01362 1.20744e+51
0.0027266 9.11451 6.09239 6.67752e+52 6.10499 4.12696 3.26722e+49 6.6752 3.981 1.44401e+51
0.0028266 9.13004 6.08255 6.88617e+52 6.25559 3.97293 3.4773e+49 6.98683 3.98533 1.73017e+51
0.0029266 9.15462 6.07282 7.14068e+52 6.4008 3.82489 3.68417e+49 7.29325 3.99292 2.02308e+51
0.0030266 9.22155 6.0636 7.60983e+52 6.52074 3.70489 3.876e+49 7.57534 4.01581 2.34755e+51
0.0031266 9.30057 6.05063 8.13953e+52 6.6354 3.59135 4.06709e+49 7.84986 4.03865 2.6751e+51
0.0032266 9.42278 6.02429 8.88575e+52 6.73119 3.50093 4.25552e+49 8.09734 4.06125 3.01372e+51
0.0033266 9.55537 5.99535 9.70226e+52 6.82324 3.41665 4.44772e+49 8.33599 4.0815 3.35091e+51
0.0034266 9.71731 5.95903 1.07178e+53 6.90466 3.34978 4.65061e+49 8.54966 4.09507 3.68411e+51
0.0035266 9.8856 5.92166 1.18067e+53 6.98436 3.28895 4.86445e+49 8.75414 4.10413 4.01123e+51
0.0036266 10.0685 5.88187 1.30641e+53 7.06015 3.242 5.1034e+49 8.93754 4.10281 4.3244e+51
0.0037266 10.2523 5.84385 1.43789e+53 7.13666 3.20075 5.36331e+49 9.11229 4.0969 4.62814e+51
0.0038266 10.4386 5.81025 1.58368e+53 7.21497 3.17369 5.67535e+49 9.2655 4.07958 4.90842e+51
0.0039266 10.6249 5.77666 1.72946e+53 7.29327 3.14663 5.9874e+49 9.41871 4.06226 5.1887e+51
0.0040266 10.8025 5.75124 1.88351e+53 7.38031 3.13559 6.39689e+49 9.54974 4.03538 5.43828e+51
0.0041266 10.9777 5.72811 2.03989e+53 7.46979 3.12905 6.83375e+49 9.67455 4.0058 5.67926e+51
0.0042266 11.1477 5.70746 2.19584e+53 7.56301 3.1274 7.31837e+49 9.79316 3.97436 5.91045e+51
0.0043266 11.3042 5.69342 2.35064e+53 7.66625 3.13885 7.93084e+49 9.89522 3.93792 6.11548e+51
0.0044266 11.4606 5.67938 2.50544e+53 7.76949 3.15031 8.54332e+49 9.99727 3.90147 6.3205e+51
0.0045266 11.6009 5.66997 2.65091e+53 7.88007 3.17263 9.33029e+49 10.0854 3.86278 6.50221e+51
0.0046266 11.7361 5.66199 2.79348e+53 7.99293 3.19831 1.01714e+50 10.1692 3.82339 6.67668e+51
0.0047266 11.8659 5.65478 2.93092e+53 8.10651 3.2264 1.10843e+50 10.2495 3.78398 6.84442e+51
0.0048266 11.9797 5.64983 3.0533e+53 8.22221 3.26151 1.22075e+50 10.3197 3.74454 6.99239e+51
0.0049266 12.0935 5.64488 3.17568e+53 8.33792 3.29662 1.33308e+50 10.3898 3.7051 7.14037e+51
0.0050266 12.1918 5.64037 3.27966e+53 8.45069 3.33466 1.47015e+50 10.4521 3.66665 7.27307e+51
0.0051266 12.2848 5.63601 3.37736e+53 8.56245 3.3737 1.61567e+50 10.5116 3.62854 7.40056e+51
0.0052266 12.3732 5.63139 3.46871e+53 8.67221 3.41249 1.77008e+50 10.5692 3.59087 7.52434e+51
0.0053266 12.4471 5.62591 3.53958e+53 8.77547 3.45044 1.95318e+50 10.6203 3.5546 7.63616e+51
0.0054266 12.521 5.62043 3.61045e+53 8.87873 3.4884 2.13627e+50 10.6714 3.51833 7.74799e+51
0.0055266 12.5821 5.61302 3.66233e+53 8.97475 3.5238 2.35061e+50 10.7171 3.48408 7.85228e+51
0.0056266 12.6384 5.60489 3.70712e+53 9.06806 3.55824 2.57665e+50 10.7608 3.45058 7.95375e+51
0.0057266 12.6913 5.59604 3.74675e+53 9.15902 3.59158 2.81279e+50 10.8032 3.41784 8.05348e+51
0.0058266 12.7316 5.58458 3.76776e+53 9.24149 3.62093 3.08546e+50 10.8411 3.38785 8.14694e+51
0.0059266 12.7718 5.57312 3.78877e+53 9.32395 3.65028 3.35814e+50 10.8789 3.35786 8.24039e+51
0.0060266 12.8023 5.55913 3.79572e+53 9.39924 3.676 3.66457e+50 10.9133 3.33051 8.33077e+51
0.0061266 12.828 5.54394 3.79598e+53 9.47111 3.69999 3.98705e+50 10.946 3.30441 8.4197e+51
0.0062266 12.852 5.52831 3.79389e+53 9.54151 3.72333 4.31651e+50 10.9781 3.27884 8.50794e+51
0.0063266 12.8651 5.50994 3.77717e+53 9.60278 3.74256 4.68938e+50 11.0065 3.25658 8.59192e+51
0.0064266 12.8782 5.49156 3.76046e+53 9.66406 3.76179 5.06225e+50 11.0349 3.23431 8.67591e+51
0.0065266 12.8845 5.47126 3.73608e+53 9.72019 3.77908 5.46853e+50 11.0602 3.21442 8.76095e+51
0.0066266 12.8864 5.44967 3.7066e+53 9.77288 3.79506 5.89711e+50 11.0834 3.19612 8.8467e+51
0.0067266 12.8878 5.42808 3.67655e+53 9.82522 3.81108 6.32919e+50 11.1066 3.17808 8.93262e+51
0.0068266 12.8813 5.40655 3.6378e+53 9.87208 3.82746 6.81534e+50 11.1306 3.16405 9.02117e+51
0.0069266 12.8748 5.38501 3.59905e+53 9.91894 3.84384 7.30148e+50 11.1545 3.15002 9.10971e+51
0.0070266 12.865 5.3639 3.55732e+53 9.96268 3.85918 7.81494e+50 11.1799 3.137 9.19979e+51
0.0071266 12.8523 5.34319 3.51287e+53 10.0036 3.87358 8.35345e+50 11.2066 3.12492 9.29129e+51
0.0072266 12.8395 5.32247 3.46842e+53 10.0444 3.88797 8.89195e+50 11.2332 3.11283 9.38279e+51
0.0073266 12.821 5.30144 3.42072e+53 10.0769 3.90221 9.47522e+50 11.2614 3.10207 9.48071e+51
0.0074266 12.8024 5.2804 3.37297e+53 10.1093 3.91646 1.00593e+51 11.2896 3.09133 9.57875e+51
0.0075266 12.782 5.25994 3.32467e+53 10.14 3.93042 1.06678e+51 11.3184 3.08119 9.67957e+51
0.0076266 12.7594 5.2402 3.27569e+53 10.1686 3.94402 1.13069e+51 11.3479 3.07179 9.78389e+51
0.0077266 12.7369 5.22047 3.22671e+53 10.1972 3.95763 1.19461e+51 11.3774 3.06239 9.88822e+51
0.0078266 12.7106 5.20095 3.17699e+53 10.2238 3.96917 1.26375e+51 11.4076 3.05376 9.99877e+51
0.0079266 12.6838 5.18147 3.12717e+53 10.25 3.98045 1.33358e+51 11.4379 3.04524 1.01101e+52
0.0080266 12.6563 5.1626 3.07762e+53 10.2739 3.99246 1.40483e+51 11.4685 3.03697 1.02232e+52
0.0081266 12.6274 5.14473 3.02848e+53 10.294 4.00567 1.47838e+51 11.4997 3.0291 1.03389e+52
0.0082266 12.5985 5.12687 2.97934e+53 10.314 4.01888 1.55193e+51 11.5308 3.02123 1.04546e+52
0.0083266 12.566 5.10772 2.93006e+53 10.3294 4.03216 1.62876e+51 11.561 3.01434 1.05759e+52
0.0084266 12.533 5.08839 2.88075e+53 10.3441 4.04545 1.70605e+51 11.591 3.00759 1.0698e+52
0.0085266 12.4993 5.06972 2.83219e+53 10.3584 4.05788 1.78461e+51 11.6211 3.00125 1.08216e+52
0.0086266 12.4643 5.05211 2.78484e+53 10.3719 4.06891 1.86529e+51 11.651 2.99558 1.09474e+52
0.0087266 12.4294 5.03451 2.7375e+53 10.3855 4.07993 1.94598e+51 11.6809 2.98991 1.10733e+52
0.0088266 12.3922 5.01652 2.69122e+53 10.3966 4.09062 2.02955e+51 11.7094 2.98568 1.12046e+52
0.0089266 12.3545 4.99849 2.6451e+53 10.4074 4.10126 2.11354e+51 11.7376 2.98166 1.13367e+52
0.0090266 12.3162 4.98057 2.59985e+53 10.4181 4.11108 2.19886e+51 11.7652 2.97781 1.14691e+52
0.0091266 12.2767 4.96287 2.55606e+53 10.4286 4.11952 2.28642e+51 11.792 2.97424 1.16019e+52
0.0092266 12.2373 4.94517 2.51227e+53 10.439 4.12797 2.37398e+51 11.8187 2.97067 1.17347e+52
0.0093266 12.1979 4.92694 2.46927e+53 10.4506 4.13356 2.46475e+51 11.8454 2.96775 1.18678e+52
0.0094266 12.1585 4.90863 2.42638e+53 10.4623 4.13872 2.556e+51 11.8721 2.96493 1.20009e+52
0.0095266 12.1185 4.89026 2.38444e+53 10.4735 4.14361 2.64822e+51 11.8979 2.96266 1.21351e+52
0.0096266 12.0774 4.87179 2.34416e+53 10.4838 4.14806 2.7421e+51 11.9224 2.96135 1.22712e+52
0.0097266 12.0363 4.85332 2.30388e+53 10.4941 4.1525 2.83599e+51 11.9468 2.96004 1.24072e+52
0.0098266 11.9961 4.83793 2.26548e+53 10.5041 4.15872 2.93128e+51 11.9714 2.95962 1.25413e+52
0.0099266 11.9561 4.82302 2.22739e+53 10.5142 4.16521 3.0268e+51 11.9959 2.95933 1.26751e+52
0.0100266 11.9153 4.80815 2.18971e+53 10.5236 4.17149 3.12278e+51 12.0193 2.95932 1.28078e+52
0.0101266 11.8731 4.79334 2.15277e+53 10.5318 4.17741 3.21958e+51 12.0407 2.95979 1.29386e+52
0.0102266 11.8309 4.77852 2.11583e+53 10.54 4.18333 3.31638e+51 12.062 2.96026 1.30694e+52
0.0103266 11.7897 4.76574 2.08163e+53 10.5485 4.189 3.41455e+51 12.0822 2.96161 1.31993e+52
0.0104266 11.7487 4.75329 2.04788e+53 10.557 4.19463 3.51293e+51 12.1021 2.9631 1.3329e+52
0.0105266 11.7079 4.74134 2.0146e+53 10.5651 4.20078 3.61121e+51 12.1219 2.96461 1.34568e+52
0.0106266 11.6677 4.73033 1.98221e+53 10.5722 4.20792 3.70927e+51 12.1412 2.96612 1.35809e+52
0.0107266 11.6274 4.71932 1.94982e+53 10.5793 4.21507 3.80733e+51 12.1606 2.96764 1.37051e+52
0.0108266 11.5874 4.70861 1.91951e+53 10.5847 4.22198 3.90534e+51 12.1773 2.96949 1.38255e+52
0.0109266 11.5474 4.69796 1.88963e+53 10.5898 4.22884 4.00333e+51 12.1935 2.97142 1.3945e+52
0.0110266 11.5082 4.68785 1.86043e+53 10.5952 4.23574 4.10205e+51 12.2098 2.97356 1.40649e+52
0.0111266 11.4707 4.67901 1.83276e+53 10.6013 4.24272 4.20244e+51 12.2265 2.9762 1.41855e+52
0.0112266 11.4331 4.67016 1.80509e+53 10.6074 4.24971 4.30282e+51 12.2432 2.97883 1.43061e+52
0.0113266 11.3944 4.6611 1.77789e+53 10.612 4.25669 4.4028e+51 12.2575 2.98127 1.44193e+52
0.0114266 11.3553 4.65197 1.75082e+53 10.6161 4.26367 4.50267e+51 12.2713 2.98366 1.45305e+52
0.0115266 11.3165 4.64295 1.7242e+53 10.6203 4.27029 4.60316e+51 12.2844 2.9862 1.46412e+52
0.0116266 11.2781 4.63424 1.69887e+53 10.6245 4.27589 4.70537e+51 12.2957 2.98915 1.47507e+52
0.0117266 11.2398 4.62553 1.67354e+53 10.6287 4.2815 4.80759e+51 12.3071 2.99211 1.48601e+52
0.0118266 11.2025 4.61638 1.64896e+53 10.6341 4.28511 4.91214e+51 12.3193 2.99418 1.4968e+52
0.0119266 11.1656 4.60708 1.62465e+53 10.64 4.28804 5.01749e+51 12.3319 2.99595 1.50753e+52
0.0120266 11.1294 4.59818 1.60091e+53 10.6459 4.2911 5.12291e+51 12.3442 2.99772 1.51804e+52
0.0121266 11.0953 4.59063 1.57915e+53 10.6517 4.29465 5.22854e+51 12.3556 2.99949 1.52777e+52
0.0122266 11.0612 4.58308 1.55739e+53 10.6576 4.2982 5.33417e+51 12.3671 3.00126 1.5375e+52
0.0123266 11.0292 4.57719 1.53691e+53 10.6641 4.30265 5.44323e+51 12.3779 3.00448 1.54758e+52
0.0124266 10.9981 4.572 1.51697e+53 10.6708 4.30747 5.55373e+51 12.3885 3.0083 1.55781e+52
0.0125266 10.9669 4.56693 1.49701e+53 10.6777 4.31203 5.66488e+51 12.3991 3.01204 1.56804e+52
0.0126266 10.9349 4.56245 1.47695e+53 10.6851 4.31545 5.77889e+51 12.41 3.01542 1.57827e+52
0.0127266 10.9028 4.55796 1.45688e+53 10.6925 4.31886 5.8929e+51 12.4208 3.0188 1.5885e+52
0.0128266 10.8716 4.55532 1.43784e+53 10.7001 4.32179 6.00671e+51 12.4312 3.02145 1.59796e+52
0.0129266 10.8408 4.55362 1.41931e+53 10.7078 4.32448 6.12041e+51 12.4413 3.02373 1.60703e+52
0.0130266 10.8104 4.55223 1.40105e+53 10.7155 4.32744 6.23458e+51 12.4512 3.02619 1.61612e+52
0.0131266 10.7823 4.55271 1.38442e+53 10.7227 4.33195 6.35151e+51 12.4597 3.02971 1.62538e+52
0.0132266 10.7543 4.55318 1.36779e+53 10.7299 4.33646 6.46843e+51 12.4682 3.03324 1.63464e+52
0.0133266 10.7261 4.55313 1.35145e+53 10.7364 4.34019 6.58749e+51 12.4752 3.03731 1.64403e+52
0.0134266 10.6977 4.55276 1.33528e+53 10.7424 4.34344 6.70784e+51 12.4813 3.04172 1.6535e+52
0.0135266 10.6694 4.55243 1.31917e+53 10.7485 4.3465 6.82841e+51 12.4875 3.04606 1.66295e+52
0.0136266 10.6427 4.55252 1.30394e+53 10.757 4.34638 6.95272e+51 12.4953 3.04925 1.67209e+52
0.0137266 10.616 4.5526 1.28872e+53 10.7654 4.34625 7.07702e+51 12.5031 3.05243 1.68122e+52
0.0138266 10.5911 4.55362 1.27414e+53 10.7753 4.34666 7.20473e+51 12.5122 3.05496 1.69038e+52
0.0139266 10.5678 4.55546 1.26012e+53 10.7865 4.34753 7.33546e+51 12.5227 3.05691 1.69956e+52
0.0140266 10.5444 4.5573 1.2461e+53 10.7977 4.3484 7.4662e+51 12.5331 3.05886 1.70873e+52
0.0141266 10.5207 4.55751 1.23196e+53 10.8076 4.35122 7.60102e+51 12.5413 3.06113 1.71794e+52
0.0142266 10.4969 4.55768 1.21782e+53 10.8174 4.35411 7.73596e+51 12.5493 3.0634 1.72716e+52
0.0143266 10.4727 4.55667 1.20375e+53 10.8262 4.35641 7.87107e+51 12.5556 3.0661 1.7361e+52
0.0144266 10.448 4.55424 1.18978e+53 10.834 4.358 8.00638e+51 12.5597 3.06931 1.74472e+52
0.0145266 10.4232 4.55182 1.1758e+53 10.8417 4.35959 8.1417e+51 12.5638 3.07252 1.75333e+52
0.0146266 10.4014 4.54966 1.16354e+53 10.8502 4.35899 8.27829e+51 12.5682 3.07568 1.76194e+52
0.0147266 10.3802 4.54756 1.15157e+53 10.8589 4.358 8.41512e+51 12.5727 3.07883 1.77054e+52
0.0148266 10.3602 4.5452 1.14003e+53 10.8685 4.35629 8.55291e+51 12.5787 3.08144 1.77942e+52
0.0149266 10.344 4.5421 1.12968e+53 10.8808 4.35249 8.69348e+51 12.5893 3.08254 1.78909e+52
0.0150266 10.3278 4.53901 1.11933e+53 10.8931 4.34868 8.83405e+51 12.5998 3.08364 1.79875e+52
0.0151266 10.3101 4.53696 1.10836e+53 10.9056 4.34509 8.97581e+51 12.611 3.08508 1.80852e+52
0.0152266 10.292 4.53526 1.09718e+53 10.9182 4.34156 9.11796e+51 12.6224 3.08663 1.81832e+52
0.0153266 10.2732 4.5336 1.0859e+53 10.9305 4.3375 9.26016e+51 12.6329 3.08824 1.82791e+52
0.0154266 10.2513 4.53218 1.07413e+53 10.9418 4.33068 9.40259e+51 12.6388 3.0901 1.83644e+52
0.0155266 10.2294 4.53076 1.06236e+53 10.9531 4.32386 9.54501e+51 12.6447 3.09196 1.84497e+52
0.0156266 10.2096 4.52754 1.05164e+53 10.9643 4.31757 9.68728e+51 12.6497 3.09326 1.85323e+52
0.0157266 10.1912 4.52314 1.04162e+53 10.9755 4.31163 9.82943e+51 12.6541 3.09419 1.86131e+52
0.0158266 10.1728 4.51873 1.0316e+53 10.9866 4.3057 9.97158e+51 12.6585 3.09512 1.86939e+52
0.0159266 10.1586 4.51531 1.02321e+53 10.995 4.31015 1.01094e+52 12.6645 3.09791 1.87813e+52
0.0160266 10.1445 4.51192 1.01487e+53 11.0033 4.31502 1.0247e+52 12.6705 3.10077 1.8869e+52
0.0161266 10.1306 4.50922 1.00667e+53 11.0111 4.3204 1.03843e+52 12.6769 3.10403 1.89592e+52
0.0162266 10.1167 4.50767 9.98672e+52 11.018 4.32664 1.0521e+52 12.684 3.10796 1.90537e+52
0.0163266 10.1029 4.50612 9.90676e+52 11.025 4.33289 1.06576e+52 12.6911 3.11189 1.91482e+52
0.0164266 10.0875 4.5036 9.82495e+52 11.0345 4.33085 1.07965e+52 12.6984 3.11355 1.92376e+52
0.0165266 10.0718 4.50094 9.74284e+52 11.0444 4.32748 1.09357e+52 12.7057 3.11486 1.93262e+52
0.0166266 10.0562 4.49766 9.66119e+52 11.0552 4.32225 1.10748e+52 12.7129 3.11527 1.94107e+52
0.0167266 10.0405 4.49322 9.58041e+52 11.0677 4.3135 1.12137e+52 12.7199 3.11401 1.94875e+52
0.0168266 10.0248 4.48879 9.49962e+52 11.0802 4.30476 1.13527e+52 12.7269 3.11275 1.95643e+52
0.0169266 10.0099 4.48422 9.42412e+52 11.0912 4.3001 1.14883e+52 12.7327 3.11163 1.96382e+52
0.0170266 9.9953 4.4796 9.3501e+52 11.1017 4.29658 1.1623e+52 12.7382 3.11054 1.97113e+52
0.0171266 9.98128 4.47464 9.2784e+52 11.1111 4.29524 1.17555e+52 12.7437 3.10956 1.97849e+52
0.0172266 9.96889 4.46876 9.21289e+52 11.1173 4.29971 1.18818e+52 12.7492 3.10888 1.98602e+52
0.0173266 9.9565 4.46289 9.14738e+52 11.1235 4.30418 1.20082e+52 12.7547 3.1082 1.99355e+52
0.0174266 9.94326 4.45637 9.07985e+52 11.1275 4.30971 1.21298e+52 12.7577 3.10898 2.00057e+52
0.0175266 9.92967 4.44959 9.01147e+52 11.1305 4.31566 1.22495e+52 12.7597 3.11038 2.00738e+52
0.0176266 9.91591 4.44267 8.94271e+52 11.1338 4.32049 1.23692e+52 12.7613 3.11182 2.01412e+52
0.0177266 9.90108 4.43492 8.87162e+52 11.1388 4.31826 1.24895e+52 12.7609 3.11354 2.02034e+52
0.0178266 9.88626 4.42718 8.80053e+52 11.1438 4.31603 1.26099e+52 12.7606 3.11527 2.02656e+52
0.0179266 9.8721 4.42052 8.7326e+52 11.1509 4.31181 1.27333e+52 12.762 3.11607 2.03303e+52
0.0180266 9.85844 4.41466 8.66704e+52 11.1596 4.30609 1.2859e+52 12.7649 3.11619 2.03969e+52
0.0181266 9.84479 4.40884 8.60152e+52 11.1684 4.30043 1.29847e+52 12.7677 3.1163 2.04636e+52
0.0182266 9.83194 4.40698 8.53995e+52 11.1764 4.30261 1.31085e+52 12.774 3.11482 2.0533e+52
0.0183266 9.81908 4.40511 8.47838e+52 11.1845 4.30479 1.32324e+52 12.7803 3.11333 2.06025e+52
0.0184266 9.80519 4.40329 8.41409e+52 11.19 4.3104 1.33509e+52 12.7857 3.11178 2.06694e+52
0.0185266 9.79025 4.4015 8.34705e+52 11.1928 4.31946 1.34642e+52 12.7901 3.11017 2.07337e+52
0.0186266 9.77532 4.39971 8.28001e+52 11.1956 4.32852 1.35775e+52 12.7945 3.10856 2.07979e+52
0.0187266 9.75795 4.39441 8.20662e+52 11.1972 4.3313 1.36864e+52 12.7946 3.10777 2.08515e+52
0.0188266 9.74035 4.38876 8.13263e+52 11.1987 4.33347 1.37949e+52 12.7942 3.10705 2.0904e+52
0.0189266 9.72324 4.38239 8.06034e+52 11.2013 4.333 1.3905e+52 12.7935 3.10669 2.09548e+52
0.0190266 9.70714 4.37453 7.9916e+52 11.2064 4.32706 1.40184e+52 12.7923 3.10708 2.1002e+52
0.0191266 9.69103 4.36667 7.92286e+52 11.2114 4.32113 1.41319e+52 12.791 3.10748 2.10492e+52
0.0192266 9.67685 4.3607 7.86095e+52 11.2181 4.31806 1.42503e+52 12.7915 3.10869 2.1101e+52
0.0193266 9.66333 4.3554 7.80145e+52 11.2254 4.316 1.43704e+52 12.7927 3.1102 2.11544e+52
0.0194266 9.64982 4.35113 7.74258e+52 11.2319 4.31623 1.44898e+52 12.7944 3.11166 2.121e+52
0.0195266 9.63631 4.3505 7.68593e+52 11.2362 4.32442 1.46065e+52 12.7984 3.11293 2.12729e+52
0.0196266 9.6228 4.34986 7.62928e+52 11.2404 4.33261 1.47233e+52 12.8023 3.1142 2.13358e+52
0.0197266 9.60857 4.34824 7.57187e+52 11.2431 4.33949 1.48349e+52 12.8064 3.11358 2.13943e+52
0.0198266 9.594 4.34614 7.5141e+52 11.2451 4.34572 1.49439e+52 12.8107 3.11202 2.14506e+52
0.0199266 9.57961 4.34343 7.45681e+52 11.2474 4.35037 1.50526e+52 12.8148 3.1103 2.15049e+52
0.0200266 9.56634 4.3372 7.40234e+52 11.2521 4.34584 1.51593e+52 12.8179 3.10757 2.15471e+52
0.0201266 9.55306 4.33097 7.34787e+52 11.2568 4.34131 1.5266e+52 12.821 3.10484 2.15894e+52
0.0202266 9.54103 4.32364 7.29664e+52 11.2633 4.33354 1.53732e+52 12.8232 3.10312 2.16275e+52
0.0203266 9.52974 4.31564 7.24736e+52 11.2707 4.32383 1.54807e+52 12.8249 3.10201 2.16631e+52
0.0204266 9.51858 4.30791 7.19867e+52 11.2781 4.31482 1.5588e+52 12.8266 3.10111 2.16991e+52
0.0205266 9.50868 4.30259 7.15527e+52 11.2847 4.31219 1.56941e+52 12.8284 3.1021 2.17384e+52
