# If you use this flux, cite http://wwwmpa.mpa-garching.mpg.de/ccsnarchive/data/Huedepohl2014_phd_thesis/, 
# Huedepohl, L. (2014), Neutrinos from the Formation, Cooling and Black Hole Collapse of Neutron Stars, PhD. Thesis, Technische Universitat Muenchen
# time (s), <energy> (MeV), alpha, luminosity (foe/s), for nu_e, nu_e_bar, nu_mu
-0.000287265 8.46586 6.32122 1.03677e+53 0 0 0 0 0 0
-0.000187265 8.48522 6.31947 1.04027e+53 2.91071 2.09743 2.43823e+45 3.36114 1.91717 2.01555e+45
-8.72651e-05 8.5049 6.3183 1.0431e+53 2.89253 2.31076 3.93488e+45 3.30087 2.19614 3.01919e+45
1.27349e-05 8.52494 6.31783 1.04513e+53 2.89665 2.44701 6.07416e+45 3.27948 2.41572 4.45587e+45
0.000112735 8.54537 6.31836 1.04751e+53 2.91964 2.52152 9.24514e+45 3.28624 2.5793 6.61678e+45
0.000212735 8.56575 6.31918 1.04781e+53 2.94587 2.58377 1.26148e+46 3.29779 2.72873 8.91346e+45
0.000312735 8.58666 6.32134 1.04636e+53 2.98341 2.60191 1.70623e+46 3.32586 2.81915 1.19923e+46
0.000412735 8.6076 6.3236 1.04478e+53 3.02083 2.6187 2.15379e+46 3.35051 2.91182 1.53757e+46
0.000512735 8.62906 6.32764 1.04087e+53 3.05587 2.6107 2.65293e+46 3.31224 3.04585 2.43448e+46
0.000612735 8.65052 6.33167 1.03697e+53 3.09091 2.6027 3.15208e+46 3.27397 3.17988 3.3314e+46
0.000712735 8.67238 6.33688 1.03133e+53 3.12361 2.58176 3.66279e+46 3.28963 3.44002 1.1016e+47
0.000812735 8.69456 6.34306 1.02426e+53 3.15439 2.55018 4.183e+46 3.34965 3.80388 2.42828e+47
0.000912735 8.71677 6.34934 1.01704e+53 3.1851 2.51807 4.70479e+46 3.41135 4.15172 4.07161e+47
0.00101273 8.73932 6.35763 1.00649e+53 3.21444 2.47484 5.2596e+46 3.50819 4.16432 1.23389e+48
0.00111273 8.76188 6.36592 9.95941e+52 3.24378 2.4316 5.81441e+46 3.60502 4.17691 2.06062e+48
0.00121273 8.78449 6.3754 9.83464e+52 3.40399 2.59856 7.98465e+46 3.69266 4.22599 4.71156e+48
0.00131273 8.80713 6.38589 9.69338e+52 3.67623 2.94543 1.15375e+47 3.77245 4.30629 8.92377e+48
0.00141273 8.82978 6.39645 9.55091e+52 3.94609 3.30347 1.59182e+47 3.85224 4.38649 1.35286e+49
0.00151273 8.85255 6.40901 9.3711e+52 4.14308 4.00513 4.57413e+47 3.93226 4.46347 3.01982e+49
0.00161273 8.87533 6.42158 9.19129e+52 4.34006 4.70679 7.55644e+47 4.01229 4.54045 4.68678e+49
0.00171273 8.89875 6.4368 8.99326e+52 4.4559 5.04001 1.55631e+48 4.11944 4.59596 7.66797e+49
0.00181273 8.92277 6.45445 8.7787e+52 4.49811 5.03901 2.81274e+48 4.2512 4.63198 1.18413e+50
0.00191273 8.9468 6.47219 8.56367e+52 4.54199 5.03744 4.10394e+48 4.38421 4.66543 1.6082e+50
0.00201273 8.97121 6.49418 8.32976e+52 4.65317 5.01246 6.79881e+48 4.56746 4.59502 2.30388e+50
0.00211273 8.99562 6.51616 8.09585e+52 4.76435 4.98747 9.49368e+48 4.7507 4.52461 2.99955e+50
0.00221273 9.01582 6.52909 7.86903e+52 4.90506 4.89659 1.21557e+49 4.95849 4.44075 3.86249e+50
0.00231273 9.0321 6.53365 7.64876e+52 5.07305 4.7448 1.47874e+49 5.18895 4.34448 4.88003e+50
0.00241273 9.0482 6.5379 7.42931e+52 5.24111 4.59253 1.74124e+49 5.41997 4.24831 5.90321e+50
0.00251273 9.04855 6.51558 7.27819e+52 5.4135 4.40124 1.94856e+49 5.69816 4.16093 7.39867e+50
0.00261273 9.04889 6.49326 7.12707e+52 5.58589 4.20995 2.15588e+49 5.97636 4.07356 8.89413e+50
0.00271273 9.04649 6.47175 7.04246e+52 5.7461 4.03096 2.34698e+49 6.26264 4.01269 1.07034e+51
0.00281273 9.04138 6.45105 7.0233e+52 5.8943 3.86409 2.52212e+49 6.55689 3.97789 1.28217e+51
0.00291273 9.03628 6.43034 7.00413e+52 6.0425 3.69722 2.69725e+49 6.85114 3.94309 1.49399e+51
0.00301273 9.0521 6.42833 7.16882e+52 6.16074 3.57617 2.8564e+49 7.1274 3.94878 1.75944e+51
0.00311273 9.06801 6.42639 7.33421e+52 6.27886 3.4553 3.01548e+49 7.40359 3.95462 2.02511e+51
0.00321273 9.10515 6.42047 7.60884e+52 6.38761 3.35417 3.17806e+49 7.66305 3.96627 2.30499e+51
0.00331273 9.16537 6.41021 8.00219e+52 6.48617 3.27448 3.34445e+49 7.90432 3.98421 2.60034e+51
0.00341273 9.22558 6.39995 8.39554e+52 6.58474 3.19479 3.51084e+49 8.14559 4.00216 2.89569e+51
0.00351273 9.33459 6.35573 9.04158e+52 6.67856 3.14726 3.71698e+49 8.35261 4.01376 3.19498e+51
0.00361273 9.44538 6.31027 9.69683e+52 6.77221 3.10091 3.92456e+49 8.55839 4.02514 3.49443e+51
0.00371273 9.57375 6.25622 1.04771e+53 6.86906 3.06741 4.16799e+49 8.7493 4.02937 3.78727e+51
0.00381273 9.72239 6.19224 1.14017e+53 6.96961 3.04876 4.45278e+49 8.92307 4.02537 4.07252e+51
0.00391273 9.87104 6.12826 1.23262e+53 7.07015 3.03011 4.73757e+49 9.09684 4.02136 4.35776e+51
0.00401273 10.0368 6.06769 1.34781e+53 7.18138 3.03355 5.13129e+49 9.24387 4.00376 4.6168e+51
0.00411273 10.2033 6.00724 1.46386e+53 7.29301 3.03783 5.52912e+49 9.3899 3.98564 4.87486e+51
0.00421273 10.37 5.95286 1.58745e+53 7.40888 3.05039 5.99758e+49 9.5249 3.96252 5.11702e+51
0.00431273 10.537 5.90551 1.71978e+53 7.52967 3.07256 6.5479e+49 9.6471 3.93362 5.34077e+51
0.00441273 10.704 5.85815 1.85212e+53 7.65047 3.09472 7.09822e+49 9.76931 3.90471 5.56452e+51
0.00451273 10.8602 5.8243 1.99053e+53 7.77518 3.12892 7.83607e+49 9.87182 3.86905 5.75453e+51
0.00461273 11.016 5.79113 2.12926e+53 7.9001 3.16374 8.58345e+49 9.97333 3.83305 5.94283e+51
0.00471273 11.1639 5.76302 2.26595e+53 8.02368 3.20159 9.4376e+49 10.067 3.7955 6.11615e+51
0.00481273 11.3021 5.74118 2.40013e+53 8.1456 3.2432 1.04239e+50 10.1509 3.75603 6.27093e+51
0.00491273 11.4404 5.71934 2.53431e+53 8.26752 3.2848 1.14103e+50 10.2348 3.71657 6.4257e+51
0.00501273 11.5598 5.70425 2.65586e+53 8.3808 3.32797 1.26545e+50 10.3043 3.67655 6.55481e+51
0.00511273 11.6778 5.68966 2.77644e+53 8.49342 3.37124 1.39182e+50 10.3727 3.63648 6.68198e+51
0.00521273 11.7875 5.67681 2.88882e+53 8.60066 3.41342 1.53097e+50 10.4357 3.59713 6.80051e+51
0.00531273 11.8852 5.66641 2.98951e+53 8.70022 3.45403 1.68836e+50 10.4911 3.5588 6.90674e+51
0.00541273 11.9829 5.65602 3.09019e+53 8.79979 3.49463 1.84575e+50 10.5465 3.52046 7.01296e+51
0.00551273 12.0641 5.64754 3.17045e+53 8.88723 3.52966 2.03358e+50 10.5935 3.48502 7.10548e+51
0.00561273 12.1432 5.63929 3.24832e+53 8.97325 3.56402 2.22498e+50 10.6395 3.44991 7.19639e+51
0.00571273 12.2161 5.63101 3.31755e+53 9.05445 3.59557 2.43012e+50 10.6828 3.41619 7.28369e+51
0.00581273 12.2784 5.62267 3.37254e+53 9.1277 3.62246 2.65789e+50 10.7215 3.38474 7.36503e+51
0.00591273 12.3408 5.61433 3.42754e+53 9.20096 3.64934 2.88567e+50 10.7603 3.35329 7.44637e+51
0.00601273 12.391 5.60542 3.4642e+53 9.26446 3.67009 3.14594e+50 10.7948 3.3254 7.52405e+51
0.00611273 12.4391 5.59642 3.49787e+53 9.32637 3.68984 3.41149e+50 10.8287 3.2981 7.60114e+51
0.00621273 12.4829 5.58679 3.52543e+53 9.38472 3.7075 3.69128e+50 10.8608 3.27235 7.67935e+51
0.00631273 12.5182 5.57596 3.54123e+53 9.43624 3.72117 3.99835e+50 10.8898 3.24961 7.75971e+51
0.00641273 12.5535 5.56513 3.55704e+53 9.48776 3.73483 4.30543e+50 10.9189 3.22686 7.84007e+51
0.00651273 12.5804 5.55432 3.56089e+53 9.53285 3.74543 4.64715e+50 10.9467 3.20793 7.92494e+51
0.00661273 12.6053 5.54353 3.56195e+53 9.57646 3.75531 4.99691e+50 10.9742 3.1899 8.01086e+51
0.00671273 12.6276 5.53231 3.55983e+53 9.6181 3.76432 5.36077e+50 11.0007 3.17303 8.0991e+51
0.00681273 12.6435 5.52006 3.54998e+53 9.65498 3.77123 5.75887e+50 11.0246 3.15901 8.193e+51
0.00691273 12.6594 5.50781 3.54012e+53 9.69186 3.77814 6.15696e+50 11.0486 3.145 8.2869e+51
0.00701273 12.6698 5.49534 3.52411e+53 9.7258 3.78303 6.59317e+50 11.0717 3.13471 8.39175e+51
0.00711273 12.6786 5.48282 3.50634e+53 9.75891 3.78734 7.04021e+50 11.0945 3.12548 8.49972e+51
0.00721273 12.6864 5.47069 3.48712e+53 9.79055 3.7917 7.49847e+50 11.1185 3.11721 8.61039e+51
0.00731273 12.6913 5.45966 3.46383e+53 9.81806 3.79619 7.98846e+50 11.1457 3.11162 8.72872e+51
0.00741273 12.6961 5.44864 3.44054e+53 9.84558 3.80068 8.47844e+50 11.1728 3.10604 8.84705e+51
0.00751273 12.6963 5.43618 3.41351e+53 9.87291 3.8039 9.01239e+50 11.2014 3.10176 8.97697e+51
0.00761273 12.6948 5.42318 3.38508e+53 9.90018 3.80666 9.56258e+50 11.2306 3.09796 9.11118e+51
0.00771273 12.6926 5.41029 3.35622e+53 9.92689 3.80956 1.01215e+51 11.2605 3.09432 9.24773e+51
0.00781273 12.6874 5.39776 3.32571e+53 9.95153 3.81301 1.07131e+51 11.2931 3.09124 9.39298e+51
0.00791273 12.6823 5.38522 3.2952e+53 9.97618 3.81647 1.13046e+51 11.3257 3.08817 9.53824e+51
0.00801273 12.6744 5.37132 3.26316e+53 9.99922 3.81965 1.19304e+51 11.3595 3.08588 9.69529e+51
0.00811273 12.6654 5.35681 3.23045e+53 10.0215 3.82271 1.25717e+51 11.3939 3.08396 9.85764e+51
0.00821273 12.656 5.34254 3.19771e+53 10.044 3.82586 1.32231e+51 11.4288 3.08211 1.00218e+52
0.00831273 12.6447 5.32942 3.16487e+53 10.0673 3.82942 1.3921e+51 11.466 3.0806 1.0194e+52
0.00841273 12.6335 5.31631 3.13203e+53 10.0906 3.83298 1.46188e+51 11.5032 3.0791 1.03662e+52
0.00851273 12.6199 5.30234 3.0979e+53 10.1129 3.8361 1.5352e+51 11.5407 3.0782 1.05466e+52
0.00861273 12.605 5.28793 3.0631e+53 10.1345 3.83897 1.61041e+51 11.5783 3.07762 1.07315e+52
0.00871273 12.5895 5.27351 3.02813e+53 10.1559 3.84175 1.68605e+51 11.6159 3.0769 1.09164e+52
0.00881273 12.5696 5.25904 2.99201e+53 10.1751 3.84384 1.76491e+51 11.6536 3.07513 1.11018e+52
0.00891273 12.5496 5.24457 2.95589e+53 10.1943 3.84593 1.84377e+51 11.6913 3.07335 1.12873e+52
0.00901273 12.5287 5.22856 2.91939e+53 10.2139 3.84659 1.92528e+51 11.7272 3.07187 1.14718e+52
0.00911273 12.5071 5.21149 2.88264e+53 10.2337 3.84625 2.00865e+51 11.7619 3.07058 1.16557e+52
0.00921273 12.4852 5.19424 2.84577e+53 10.2533 3.84595 2.09207e+51 11.7965 3.06932 1.18393e+52
0.00931273 12.4582 5.17403 2.80704e+53 10.2679 3.84632 2.17629e+51 11.8288 3.06847 1.20196e+52
0.00941273 12.4312 5.15381 2.76831e+53 10.2826 3.84669 2.26051e+51 11.861 3.06763 1.21998e+52
0.00951273 12.4033 5.13327 2.72948e+53 10.2941 3.84853 2.34444e+51 11.8914 3.06701 1.23736e+52
0.00961273 12.3745 5.11242 2.69057e+53 10.3027 3.85174 2.42812e+51 11.9201 3.0666 1.25415e+52
0.00971273 12.3456 5.09154 2.65165e+53 10.3113 3.85494 2.51181e+51 11.9488 3.06619 1.27093e+52
0.00981273 12.3114 5.06823 2.61086e+53 10.3175 3.85721 2.59654e+51 11.9736 3.06654 1.28718e+52
0.00991273 12.2771 5.04492 2.57007e+53 10.3236 3.85949 2.68127e+51 11.9984 3.06689 1.30342e+52
0.0100127 12.2426 5.02257 2.53016e+53 10.3288 3.86334 2.7664e+51 12.0214 3.06776 1.3191e+52
0.0101127 12.2078 5.0013 2.49121e+53 10.3328 3.86894 2.85196e+51 12.0424 3.0692 1.33416e+52
0.0102127 12.1731 4.98003 2.45225e+53 10.3368 3.87454 2.93752e+51 12.0633 3.07063 1.34921e+52
0.0103127 12.1361 4.9576 2.41357e+53 10.3402 3.88145 3.02638e+51 12.081 3.0737 1.36416e+52
0.0104127 12.099 4.93513 2.3749e+53 10.3435 3.8884 3.11535e+51 12.0985 3.07683 1.3791e+52
0.0105127 12.0626 4.9137 2.33745e+53 10.3472 3.89629 3.20619e+51 12.1158 3.08012 1.3938e+52
0.0106127 12.027 4.89353 2.30148e+53 10.3512 3.9053 3.29923e+51 12.1328 3.0836 1.4082e+52
0.0107127 11.9913 4.87336 2.2655e+53 10.3553 3.91431 3.39228e+51 12.1498 3.08708 1.4226e+52
0.0108127 11.9558 4.85412 2.23188e+53 10.3633 3.92166 3.49205e+51 12.1658 3.0908 1.43702e+52
0.0109127 11.9203 4.83494 2.19839e+53 10.3714 3.92893 3.5922e+51 12.1818 3.09454 1.45143e+52
0.0110127 11.8862 4.81716 2.16688e+53 10.3804 3.93652 3.69414e+51 12.1978 3.09809 1.46563e+52
0.0111127 11.8542 4.80119 2.13794e+53 10.3904 3.94453 3.7984e+51 12.2137 3.10139 1.47955e+52
0.0112127 11.8221 4.78522 2.10901e+53 10.4004 3.95254 3.90267e+51 12.2297 3.10469 1.49346e+52
0.0113127 11.7906 4.76879 2.08151e+53 10.4123 3.9589 4.01284e+51 12.2437 3.10797 1.50679e+52
0.0114127 11.7591 4.7523 2.05418e+53 10.4244 3.96506 4.12372e+51 12.2575 3.11125 1.52005e+52
0.0115127 11.7285 4.73686 2.02786e+53 10.4378 3.97118 4.23736e+51 12.2715 3.11448 1.53313e+52
0.0116127 11.6995 4.72334 2.0034e+53 10.4534 3.97722 4.35612e+51 12.2858 3.11764 1.54588e+52
0.0117127 11.6704 4.70982 1.97894e+53 10.469 3.98325 4.47488e+51 12.3002 3.12079 1.55863e+52
0.0118127 11.6404 4.69847 1.95447e+53 10.4844 3.99038 4.59858e+51 12.3135 3.12336 1.57068e+52
0.0119127 11.6101 4.68761 1.93e+53 10.4996 3.99775 4.72345e+51 12.3265 3.1258 1.58256e+52
0.0120127 11.58 4.67729 1.90619e+53 10.5153 4.00442 4.85071e+51 12.3393 3.12824 1.59438e+52
0.0121127 11.5505 4.6684 1.88415e+53 10.5321 4.00918 4.98447e+51 12.3514 3.13065 1.60603e+52
0.0122127 11.5211 4.65951 1.86211e+53 10.5489 4.01394 5.11823e+51 12.3634 3.13307 1.61768e+52
0.0123127 11.4923 4.65127 1.84044e+53 10.5657 4.01711 5.25521e+51 12.375 3.13459 1.6286e+52
0.0124127 11.4638 4.64327 1.81892e+53 10.5825 4.01969 5.39339e+51 12.3864 3.13577 1.63924e+52
0.0125127 11.4352 4.63498 1.79763e+53 10.599 4.02265 5.53259e+51 12.3975 3.13694 1.64986e+52
0.0126127 11.4063 4.6254 1.77738e+53 10.6141 4.02726 5.67623e+51 12.4074 3.13805 1.66044e+52
0.0127127 11.3775 4.61582 1.75713e+53 10.6293 4.03187 5.81987e+51 12.4173 3.13915 1.67101e+52
0.0128127 11.3504 4.61141 1.73832e+53 10.6458 4.0378 5.96975e+51 12.429 3.141 1.68199e+52
0.0129127 11.3244 4.60984 1.72031e+53 10.6631 4.04445 6.12306e+51 12.4415 3.14325 1.69318e+52
0.0130127 11.2982 4.60839 1.70218e+53 10.6803 4.05078 6.27704e+51 12.4539 3.14545 1.70427e+52
0.0131127 11.2706 4.60795 1.68308e+53 10.6974 4.05426 6.43691e+51 12.4646 3.14709 1.71454e+52
0.0132127 11.243 4.60751 1.66398e+53 10.7145 4.05774 6.59678e+51 12.4752 3.14874 1.72481e+52
0.0133127 11.2163 4.60581 1.64623e+53 10.7309 4.06135 6.76098e+51 12.4841 3.15078 1.73519e+52
0.0134127 11.1905 4.60313 1.62955e+53 10.7467 4.06506 6.92856e+51 12.4917 3.15314 1.74566e+52
0.0135127 11.1647 4.60057 1.61291e+53 10.7625 4.06886 7.09633e+51 12.4993 3.15551 1.75617e+52
0.0136127 11.143 4.60433 1.59868e+53 10.7795 4.07696 7.2737e+51 12.5112 3.15859 1.76849e+52
0.0137127 11.1214 4.60808 1.58445e+53 10.7965 4.08507 7.45106e+51 12.5232 3.16168 1.7808e+52
0.0138127 11.0988 4.61247 1.56938e+53 10.813 4.09309 7.62996e+51 12.536 3.16391 1.79297e+52
0.0139127 11.0751 4.61756 1.55341e+53 10.8291 4.10103 7.81053e+51 12.5498 3.1652 1.80497e+52
0.0140127 11.0514 4.62264 1.53744e+53 10.8451 4.10896 7.99111e+51 12.5635 3.16649 1.81697e+52
0.0141127 11.028 4.62107 1.52236e+53 10.8591 4.11494 8.17398e+51 12.5735 3.16754 1.82817e+52
0.0142127 11.0045 4.61905 1.50732e+53 10.8731 4.12079 8.357e+51 12.5831 3.16859 1.83933e+52
0.0143127 10.983 4.61682 1.4936e+53 10.8865 4.12725 8.54127e+51 12.5921 3.1703 1.85067e+52
0.0144127 10.9643 4.61428 1.48186e+53 10.8993 4.13464 8.72743e+51 12.6001 3.17304 1.86231e+52
0.0145127 10.9457 4.61173 1.47013e+53 10.9121 4.14204 8.91359e+51 12.6081 3.17578 1.87394e+52
0.0146127 10.9294 4.61549 1.45968e+53 10.9261 4.14913 9.10456e+51 12.618 3.17953 1.88667e+52
0.0147127 10.9134 4.62005 1.44938e+53 10.9402 4.15618 9.29614e+51 12.6282 3.18342 1.89953e+52
0.0148127 10.8971 4.62465 1.43877e+53 10.9546 4.16255 9.48807e+51 12.6394 3.18671 1.91253e+52
0.0149127 10.88 4.62934 1.42744e+53 10.9695 4.16744 9.68081e+51 12.6529 3.18869 1.92581e+52
0.0150127 10.863 4.63404 1.41612e+53 10.9844 4.17232 9.87355e+51 12.6665 3.19067 1.9391e+52
0.0151127 10.845 4.63528 1.4047e+53 10.9976 4.17654 1.00619e+52 12.6795 3.19057 1.95142e+52
0.0152127 10.8267 4.63525 1.39324e+53 11.0103 4.18051 1.02487e+52 12.6924 3.18972 1.9634e+52
0.0153127 10.8088 4.63482 1.38213e+53 11.0226 4.1844 1.04349e+52 12.7049 3.18898 1.97531e+52
0.0154127 10.7934 4.63217 1.37289e+53 11.0333 4.18783 1.06185e+52 12.715 3.18884 1.98682e+52
0.0155127 10.778 4.62953 1.36365e+53 11.0441 4.19127 1.0802e+52 12.7251 3.18871 1.99833e+52
0.0156127 10.7646 4.62751 1.35563e+53 11.0535 4.19499 1.09825e+52 12.7343 3.18971 2.00999e+52
0.0157127 10.7525 4.62597 1.3485e+53 11.062 4.19894 1.11609e+52 12.7427 3.19154 2.02176e+52
0.0158127 10.7405 4.62442 1.34137e+53 11.0705 4.20288 1.13393e+52 12.7512 3.19337 2.03354e+52
0.0159127 10.7282 4.62086 1.33346e+53 11.0792 4.20369 1.15153e+52 12.7601 3.19476 2.04553e+52
0.0160127 10.7159 4.61731 1.32555e+53 11.0879 4.20451 1.16913e+52 12.769 3.19614 2.05753e+52
0.0161127 10.702 4.61229 1.31675e+53 11.0972 4.20419 1.18671e+52 12.7788 3.19661 2.06951e+52
0.0162127 10.6859 4.60527 1.30671e+53 11.1071 4.20233 1.20426e+52 12.7897 3.19583 2.08146e+52
0.0163127 10.6698 4.59826 1.29668e+53 11.1171 4.20047 1.22181e+52 12.8006 3.19505 2.09342e+52
0.0164127 10.654 4.59167 1.28736e+53 11.1263 4.20091 1.23883e+52 12.8127 3.19327 2.10447e+52
0.0165127 10.6383 4.58517 1.27818e+53 11.1353 4.20177 1.25575e+52 12.825 3.19131 2.11536e+52
0.0166127 10.6236 4.57915 1.2696e+53 11.1437 4.20362 1.27247e+52 12.8368 3.18975 2.12599e+52
0.0167127 10.6118 4.57444 1.26266e+53 11.1503 4.20818 1.28864e+52 12.8477 3.1893 2.13594e+52
0.0168127 10.6 4.56974 1.25572e+53 11.1569 4.21274 1.3048e+52 12.8585 3.18885 2.14588e+52
0.0169127 10.5887 4.56611 1.24885e+53 11.162 4.21735 1.32038e+52 12.8676 3.18972 2.15566e+52
0.0170127 10.5777 4.56295 1.242e+53 11.1664 4.222 1.33569e+52 12.876 3.19118 2.16537e+52
0.0171127 10.5663 4.55983 1.23498e+53 11.1704 4.22659 1.35089e+52 12.8841 3.19271 2.17501e+52
0.0172127 10.5518 4.55697 1.22658e+53 11.1715 4.23085 1.36511e+52 12.8893 3.19478 2.18418e+52
0.0173127 10.5373 4.55412 1.21818e+53 11.1726 4.2351 1.37934e+52 12.8945 3.19685 2.19335e+52
0.0174127 10.5223 4.55105 1.20995e+53 11.1734 4.23983 1.3935e+52 12.8994 3.19859 2.20236e+52
0.0175127 10.5069 4.5478 1.20186e+53 11.1738 4.24498 1.40761e+52 12.904 3.20002 2.21121e+52
0.0176127 10.4916 4.54454 1.19377e+53 11.1742 4.25012 1.42173e+52 12.9087 3.20146 2.22007e+52
0.0177127 10.4788 4.54046 1.18695e+53 11.1774 4.25526 1.43642e+52 12.9166 3.20129 2.22883e+52
0.0178127 10.4662 4.53635 1.18018e+53 11.1807 4.2604 1.45114e+52 12.9246 3.20105 2.23758e+52
0.0179127 10.4542 4.53274 1.17362e+53 11.1845 4.26538 1.4659e+52 12.9332 3.20061 2.24618e+52
0.0180127 10.4432 4.52995 1.1674e+53 11.1892 4.2701 1.48073e+52 12.9425 3.19985 2.25452e+52
0.0181127 10.4321 4.52717 1.16117e+53 11.1939 4.27481 1.49556e+52 12.9519 3.1991 2.26286e+52
0.0182127 10.4208 4.52658 1.15489e+53 11.1976 4.27904 1.51011e+52 12.9593 3.19962 2.27088e+52
0.0183127 10.4094 4.52654 1.14859e+53 11.201 4.28315 1.52459e+52 12.9661 3.20046 2.27883e+52
0.0184127 10.3974 4.5262 1.14205e+53 11.204 4.28672 1.53895e+52 12.9719 3.20148 2.28658e+52
0.0185127 10.3832 4.52489 1.13465e+53 11.205 4.28843 1.55289e+52 12.9741 3.20315 2.29365e+52
0.0186127 10.369 4.52357 1.12725e+53 11.206 4.29014 1.56684e+52 12.9763 3.20482 2.30073e+52
0.0187127 10.354 4.52054 1.11951e+53 11.2069 4.29198 1.58096e+52 12.9778 3.2066 2.30769e+52
0.0188127 10.3385 4.51657 1.11158e+53 11.2079 4.29389 1.59517e+52 12.9789 3.20844 2.31458e+52
0.0189127 10.3233 4.51258 1.10374e+53 11.209 4.29587 1.60947e+52 12.9803 3.21024 2.32154e+52
0.0190127 10.3105 4.50829 1.09697e+53 11.2133 4.29883 1.62497e+52 12.9855 3.21158 2.3295e+52
0.0191127 10.2978 4.50399 1.09021e+53 11.2175 4.30178 1.64048e+52 12.9906 3.21293 2.33747e+52
0.0192127 10.287 4.50064 1.08425e+53 11.2233 4.30424 1.65621e+52 12.9984 3.21305 2.34575e+52
0.0193127 10.2782 4.49826 1.07912e+53 11.2305 4.30619 1.67216e+52 13.0087 3.21192 2.35436e+52
0.0194127 10.2693 4.49588 1.07399e+53 11.2378 4.30814 1.68811e+52 13.019 3.21079 2.36297e+52
0.0195127 10.2609 4.49512 1.06882e+53 11.2434 4.30999 1.70287e+52 13.0291 3.20887 2.37113e+52
0.0196127 10.2525 4.4945 1.06365e+53 11.2489 4.31184 1.71751e+52 13.0393 3.20687 2.37925e+52
0.0197127 10.243 4.49365 1.05805e+53 11.253 4.31362 1.73176e+52 13.0477 3.20535 2.38706e+52
0.0198127 10.2314 4.49232 1.0516e+53 11.2545 4.31525 1.74524e+52 13.0528 3.20477 2.39426e+52
0.0199127 10.2197 4.49099 1.04515e+53 11.256 4.31689 1.75872e+52 13.0579 3.20418 2.40146e+52
0.0200127 10.2079 4.48865 1.03894e+53 11.2576 4.31834 1.77268e+52 13.0606 3.20467 2.40827e+52
0.0201127 10.1961 4.48599 1.0328e+53 11.2592 4.31974 1.78679e+52 13.0625 3.2055 2.41496e+52
0.0202127 10.1846 4.48323 1.02682e+53 11.2612 4.32119 1.80112e+52 13.0645 3.2065 2.42167e+52
0.0203127 10.1748 4.48003 1.02157e+53 11.2653 4.32293 1.81649e+52 13.0665 3.20835 2.42851e+52
0.0204127 10.165 4.47684 1.01632e+53 11.2695 4.32466 1.83186e+52 13.0685 3.2102 2.43534e+52
0.0205127 10.1552 4.47378 1.01111e+53 11.2741 4.32653 1.84736e+52 13.0711 3.21232 2.4424e+52
0.0206127 10.1455 4.47082 1.00592e+53 11.279 4.32847 1.86296e+52 13.0741 3.21461 2.44961e+52
