# If you use this flux, cite http://wwwmpa.mpa-garching.mpg.de/ccsnarchive/data/Huedepohl2014_phd_thesis/, 
# Huedepohl, L. (2014), Neutrinos from the Formation, Cooling and Black Hole Collapse of Neutron Stars, PhD. Thesis, Technische Universitat Muenchen
# time (s), <energy> (MeV), alpha, luminosity (foe/s), for nu_e, nu_e_bar, nu_mu
0.000374831 8.70303 6.49876 1.13322e+53 0 0 0 0 0 0
0.000474831 8.72157 6.50831 1.12345e+53 3.87414 2.68832 1.40649e+47 3.33697 3.72038 7.60611e+47
0.000574831 8.74011 6.51877 1.11229e+53 3.92327 2.66403 1.5643e+47 3.441 3.77608 1.60262e+48
0.000674831 8.75861 6.53005 1.09981e+53 3.96806 2.64058 1.72342e+47 3.54368 3.87673 3.22753e+48
0.000774831 8.77709 6.54211 1.08602e+53 4.01463 2.65107 1.91449e+47 3.64018 3.96599 6.21394e+48
0.000874831 8.79541 6.55488 1.07077e+53 4.21378 3.47883 2.68632e+47 3.73362 4.03018 1.16722e+49
0.000974831 8.81356 6.56821 1.05394e+53 4.39692 4.68384 5.09945e+47 3.83053 4.11494 2.15853e+49
0.00107483 8.83167 6.58219 1.03557e+53 4.43288 4.99766 1.0278e+48 3.93645 4.19876 3.86822e+49
0.00117483 8.84995 6.59742 1.0158e+53 4.47 5.04973 2.02207e+48 4.0559 4.27795 6.56934e+49
0.00127483 8.86856 6.61464 9.94858e+52 4.51143 5.02516 3.74769e+48 4.19521 4.32762 1.04085e+50
0.00137483 8.88751 6.63414 9.72959e+52 4.56168 4.98987 6.35897e+48 4.35542 4.34376 1.54562e+50
0.00147483 8.90679 6.65627 9.50217e+52 4.63517 4.9742 1.00814e+49 4.5373 4.33041 2.19049e+50
0.00157483 8.9256 6.67901 9.2698e+52 4.76209 4.92702 1.4715e+49 4.7452 4.28275 3.02452e+50
0.00167483 8.94247 6.69784 9.03978e+52 4.91829 4.84054 1.94808e+49 4.97394 4.22406 4.0314e+50
0.00177483 8.95797 6.71381 8.81187e+52 5.09113 4.7284 2.42665e+49 5.21551 4.16027 5.14691e+50
0.00187483 8.96678 6.71563 8.60692e+52 5.28215 4.56612 2.86176e+49 5.4898 4.09213 6.59137e+50
0.00197483 8.97196 6.71125 8.42221e+52 5.474 4.39747 3.27632e+49 5.77645 4.03321 8.2236e+50
0.00207483 8.97225 6.69866 8.26565e+52 5.66598 4.22252 3.66349e+49 6.0792 3.98798 1.01101e+51
0.00217483 8.96792 6.68212 8.17045e+52 5.84558 4.05736 4.01438e+49 6.39358 3.96452 1.24084e+51
0.00227483 8.96323 6.66666 8.11363e+52 6.01633 3.90031 4.34775e+49 6.7079 3.95332 1.49214e+51
0.00237483 8.95957 6.65533 8.12206e+52 6.17135 3.75832 4.65474e+49 7.01737 3.96206 1.77716e+51
0.00247483 8.96356 6.65075 8.21239e+52 6.3093 3.63496 4.94158e+49 7.31245 3.98119 2.09179e+51
0.00257483 8.97369 6.64882 8.35459e+52 6.43782 3.52256 5.21938e+49 7.59797 4.00442 2.42173e+51
0.00267483 8.9988 6.64831 8.59775e+52 6.55118 3.42964 5.48811e+49 7.86377 4.02992 2.7736e+51
0.00277483 9.03956 6.64036 8.92958e+52 6.6561 3.35037 5.76251e+49 8.11381 4.05309 3.13344e+51
0.00287483 9.09183 6.62594 9.32631e+52 6.75551 3.28056 6.04316e+49 8.35268 4.07415 3.49784e+51
0.00297483 9.17262 6.58678 9.88183e+52 6.8474 3.22928 6.35713e+49 8.56749 4.08649 3.86235e+51
0.00307483 9.25832 6.54342 1.04682e+53 6.93897 3.1809 6.68178e+49 8.77831 4.09678 4.22502e+51
0.00317483 9.37108 6.47698 1.12242e+53 7.02885 3.14854 7.06518e+49 8.96716 4.09575 4.57757e+51
0.00327483 9.49024 6.40783 1.20323e+53 7.11969 3.12054 7.47509e+49 9.14993 4.09111 4.9241e+51
0.00337483 9.62667 6.33132 1.29815e+53 7.21311 3.10434 7.95668e+49 9.31626 4.0767 5.25431e+51
0.00347483 9.76844 6.25529 1.39957e+53 7.30904 3.09331 8.4872e+49 9.4754 4.05681 5.57211e+51
0.00357483 9.91869 6.17999 1.51132e+53 7.40897 3.0905 9.09551e+49 9.62313 4.0282 5.87017e+51
0.00367483 10.071 6.11031 1.62955e+53 7.51261 3.09302 9.78292e+49 9.75957 4.002 6.15231e+51
0.00377483 10.2252 6.0462 1.75422e+53 7.61991 3.10084 1.05487e+50 9.88482 3.9782 6.41865e+51
0.00387483 10.3775 5.98998 1.88383e+53 7.73116 3.11402 1.14333e+50 10.0013 3.94836 6.66648e+51
0.00397483 10.5286 5.93864 2.0165e+53 7.84484 3.1305 1.23913e+50 10.1122 3.9148 6.90289e+51
0.00407483 10.6739 5.89558 2.15113e+53 7.96144 3.1523 1.35178e+50 10.2139 3.87685 7.11836e+51
0.00417483 10.817 5.85552 2.28647e+53 8.0791 3.17602 1.47053e+50 10.3121 3.83733 7.32627e+51
0.00427483 10.9488 5.82405 2.41834e+53 8.1969 3.20482 1.61606e+50 10.3979 3.79582 7.50835e+51
0.00437483 11.0785 5.79408 2.5496e+53 8.31472 3.23452 1.7663e+50 10.4816 3.75396 7.68589e+51
0.00447483 11.203 5.76666 2.67713e+53 8.43088 3.26529 1.92872e+50 10.5609 3.71207 7.85464e+51
0.00457483 11.3169 5.74429 2.79725e+53 8.54375 3.29821 2.11535e+50 10.6314 3.67009 8.00588e+51
0.00467483 11.4261 5.72342 2.91267e+53 8.65411 3.33132 2.31428e+50 10.6986 3.62876 8.15165e+51
0.00477483 11.5242 5.706 3.01723e+53 8.75868 3.36487 2.54166e+50 10.758 3.58891 8.28477e+51
0.00487483 11.6222 5.68858 3.12179e+53 8.86325 3.39843 2.76903e+50 10.8175 3.54907 8.41788e+51
0.00497483 11.7079 5.6738 3.21199e+53 8.95971 3.43033 3.03249e+50 10.8697 3.51205 8.5414e+51
0.00507483 11.7904 5.65971 3.29846e+53 9.05405 3.4618 3.30534e+50 10.92 3.47578 8.66241e+51
0.00517483 11.8643 5.64628 3.37394e+53 9.14184 3.49023 3.60466e+50 10.9658 3.44176 8.77929e+51
0.00527483 11.9327 5.63329 3.44213e+53 9.22527 3.51664 3.92151e+50 11.0084 3.40924 8.89344e+51
0.00537483 11.9956 5.62087 3.50308e+53 9.30444 3.5404 4.25794e+50 11.0488 3.37854 9.00704e+51
0.00547483 12.0507 5.60926 3.55355e+53 9.37744 3.56032 4.62262e+50 11.0857 3.35049 9.11987e+51
0.00557483 12.1058 5.59767 3.60388e+53 9.45038 3.5802 4.98775e+50 11.1226 3.32247 9.23271e+51
0.00567483 12.1486 5.58679 3.63679e+53 9.51448 3.59416 5.40848e+50 11.1554 3.29896 9.34735e+51
0.00577483 12.1915 5.57591 3.66969e+53 9.57859 3.60813 5.82921e+50 11.1882 3.27545 9.462e+51
0.00587483 12.2289 5.56454 3.69445e+53 9.63858 3.61906 6.27835e+50 11.2199 3.25381 9.57788e+51
0.00597483 12.2609 5.55268 3.71107e+53 9.69445 3.62695 6.7559e+50 11.2505 3.23403 9.69498e+51
0.00607483 12.2929 5.54082 3.72768e+53 9.75032 3.63485 7.23345e+50 11.281 3.21426 9.81209e+51
0.00617483 12.3152 5.52648 3.73111e+53 9.79808 3.63622 7.76893e+50 11.3092 3.1977 9.93591e+51
0.00627483 12.3375 5.51214 3.73452e+53 9.84582 3.63758 8.30454e+50 11.3373 3.18116 1.00597e+52
0.00637483 12.3556 5.49672 3.73115e+53 9.89075 3.63737 8.86809e+50 11.3648 3.16561 1.01829e+52
0.00647483 12.3695 5.48022 3.72089e+53 9.93281 3.63557 9.4601e+50 11.3917 3.15107 1.03052e+52
0.00657483 12.3834 5.46372 3.71062e+53 9.97487 3.63377 1.00521e+51 11.4186 3.13653 1.04276e+52
0.00667483 12.3876 5.44279 3.68721e+53 10.0091 3.62973 1.06914e+51 11.4406 3.12381 1.05488e+52
0.00677483 12.3917 5.42182 3.6637e+53 10.0432 3.62567 1.1331e+51 11.4626 3.11111 1.067e+52
0.00687483 12.3922 5.39982 3.63578e+53 10.0729 3.62117 1.19841e+51 11.484 3.09948 1.07911e+52
0.00697483 12.3887 5.37667 3.60297e+53 10.0977 3.6162 1.26524e+51 11.505 3.08904 1.09119e+52
0.00707483 12.3851 5.35352 3.57017e+53 10.1226 3.61123 1.33207e+51 11.526 3.07861 1.10328e+52
0.00717483 12.3786 5.32907 3.53469e+53 10.1464 3.60807 1.40551e+51 11.5482 3.0711 1.1162e+52
0.00727483 12.372 5.30458 3.49913e+53 10.1701 3.60497 1.47917e+51 11.5705 3.06369 1.12915e+52
0.00737483 12.3642 5.27997 3.46311e+53 10.1952 3.60337 1.55721e+51 11.5928 3.05776 1.1426e+52
0.00747483 12.3549 5.25521 3.42651e+53 10.2218 3.60364 1.64074e+51 11.6152 3.05368 1.15667e+52
0.00757483 12.3455 5.23046 3.38991e+53 10.2485 3.60392 1.72427e+51 11.6376 3.04961 1.17074e+52
0.00767483 12.3331 5.2057 3.35278e+53 10.2753 3.60618 1.81668e+51 11.6591 3.04867 1.18595e+52
0.00777483 12.3205 5.18095 3.31561e+53 10.302 3.60863 1.90988e+51 11.6804 3.04801 1.20125e+52
0.00787483 12.3067 5.15685 3.27863e+53 10.3294 3.61146 2.0072e+51 11.7016 3.04826 1.21683e+52
0.00797483 12.2912 5.13375 3.24191e+53 10.3575 3.61489 2.11069e+51 11.7226 3.04988 1.23283e+52
0.00807483 12.2758 5.11065 3.20519e+53 10.3857 3.61831 2.21417e+51 11.7436 3.0515 1.24883e+52
0.00817483 12.2568 5.09042 3.16978e+53 10.4153 3.6238 2.32739e+51 11.7641 3.05417 1.26552e+52
0.00827483 12.2374 5.07051 3.13453e+53 10.445 3.62953 2.44172e+51 11.7847 3.05695 1.28229e+52
0.00837483 12.2183 5.05188 3.10062e+53 10.474 3.63593 2.55913e+51 11.805 3.06015 1.29899e+52
0.00847483 12.1999 5.03549 3.06907e+53 10.5019 3.64348 2.6819e+51 11.8248 3.06408 1.31555e+52
0.00857483 12.1815 5.0191 3.03752e+53 10.5298 3.65104 2.80467e+51 11.8447 3.068 1.33212e+52
0.00867483 12.1635 5.00361 3.0077e+53 10.556 3.66068 2.9346e+51 11.8651 3.07216 1.34888e+52
0.00877483 12.1456 4.9883 2.97824e+53 10.582 3.67075 3.06598e+51 11.8857 3.07638 1.36567e+52
0.00887483 12.1268 4.97314 2.94822e+53 10.6064 3.6811 3.19865e+51 11.9063 3.08054 1.38229e+52
0.00897483 12.1061 4.95826 2.9171e+53 10.6277 3.69202 3.33395e+51 11.9268 3.08459 1.39855e+52
0.00907483 12.0854 4.94338 2.88598e+53 10.649 3.70295 3.46926e+51 11.9473 3.08865 1.41481e+52
0.00917483 12.0635 4.93111 2.85713e+53 10.6663 3.71443 3.6072e+51 11.9673 3.09225 1.43087e+52
0.00927483 12.0412 4.91945 2.82882e+53 10.6827 3.72604 3.74575e+51 11.9872 3.09575 1.44687e+52
0.00937483 12.0187 4.90789 2.80061e+53 10.6972 3.73755 3.88438e+51 12.0068 3.0992 1.46279e+52
0.00947483 11.9959 4.89655 2.77266e+53 10.7076 3.74884 4.02321e+51 12.0258 3.10257 1.4785e+52
0.00957483 11.9731 4.88522 2.74471e+53 10.718 3.76013 4.16204e+51 12.0447 3.10594 1.4942e+52
0.00967483 11.9497 4.8755 2.71805e+53 10.7243 3.77265 4.30219e+51 12.0633 3.10901 1.5098e+52
0.00977483 11.9261 4.86617 2.69171e+53 10.7295 3.78548 4.44267e+51 12.082 3.11199 1.52537e+52
0.00987483 11.9023 4.8571 2.66526e+53 10.7348 3.7978 4.58489e+51 12.1005 3.11489 1.54096e+52
0.00997483 11.878 4.84871 2.63852e+53 10.7407 3.80876 4.73178e+51 12.119 3.11754 1.5566e+52
0.0100748 11.8537 4.84032 2.61179e+53 10.7466 3.81971 4.87868e+51 12.1374 3.12019 1.57224e+52
0.0101748 11.8294 4.8352 2.58741e+53 10.7497 3.83336 5.02894e+51 12.1553 3.12321 1.58851e+52
0.0102748 11.805 4.83113 2.5638e+53 10.7519 3.84788 5.18029e+51 12.1731 3.12635 1.60499e+52
0.0103748 11.7814 4.82786 2.54065e+53 10.7535 3.86241 5.3322e+51 12.1908 3.12972 1.6214e+52
0.0104748 11.7603 4.82727 2.51906e+53 10.7533 3.87698 5.48603e+51 12.2083 3.13391 1.63761e+52
0.0105748 11.7391 4.82668 2.49746e+53 10.753 3.89154 5.63986e+51 12.2259 3.13809 1.65381e+52
0.0106748 11.7165 4.82425 2.47502e+53 10.7533 3.90439 5.79989e+51 12.2419 3.14266 1.67076e+52
0.0107748 11.6931 4.82104 2.4522e+53 10.7538 3.9165 5.96255e+51 12.2573 3.14739 1.68803e+52
0.0108748 11.67 4.81825 2.42983e+53 10.7541 3.92877 6.12599e+51 12.2731 3.15194 1.70552e+52
0.0109748 11.6478 4.81749 2.4095e+53 10.7539 3.94177 6.29313e+51 12.2907 3.15567 1.72413e+52
0.0110748 11.6256 4.81672 2.38917e+53 10.7537 3.95477 6.46026e+51 12.3084 3.1594 1.74274e+52
0.0111748 11.606 4.81765 2.36995e+53 10.7534 3.96709 6.62586e+51 12.3275 3.16272 1.76105e+52
0.0112748 11.5876 4.81949 2.35134e+53 10.7529 3.97905 6.79063e+51 12.3474 3.1658 1.77919e+52
0.0113748 11.5693 4.82075 2.33269e+53 10.7525 3.99059 6.95566e+51 12.3669 3.16908 1.79736e+52
0.0114748 11.5506 4.81788 2.31386e+53 10.7526 3.99915 7.12255e+51 12.3832 3.17374 1.81571e+52
0.0115748 11.532 4.815 2.29503e+53 10.7528 4.00771 7.28944e+51 12.3994 3.17841 1.83406e+52
0.0116748 11.5135 4.81047 2.27753e+53 10.7534 4.01518 7.45985e+51 12.4146 3.18342 1.8533e+52
0.0117748 11.495 4.80483 2.26095e+53 10.7544 4.0219 7.63265e+51 12.4291 3.18868 1.87315e+52
0.0118748 11.4767 4.79951 2.24458e+53 10.7555 4.02859 7.80552e+51 12.4439 3.19375 1.89308e+52
0.0119748 11.4621 4.79858 2.231e+53 10.7577 4.03482 7.97918e+51 12.4643 3.19631 1.91407e+52
0.0120748 11.4474 4.79764 2.21743e+53 10.7599 4.04105 8.15284e+51 12.4847 3.19888 1.93507e+52
0.0121748 11.4341 4.79819 2.20425e+53 10.7606 4.04872 8.32188e+51 12.5055 3.20105 1.95566e+52
0.0122748 11.4218 4.80003 2.19144e+53 10.76 4.05765 8.48687e+51 12.5267 3.20289 1.9759e+52
0.0123748 11.4096 4.80188 2.17862e+53 10.7594 4.06659 8.65186e+51 12.548 3.20472 1.99615e+52
0.0124748 11.3967 4.79546 2.16467e+53 10.7548 4.07677 8.81077e+51 12.5635 3.20931 2.01609e+52
0.0125748 11.3839 4.78881 2.15068e+53 10.75 4.08699 8.96951e+51 12.5789 3.21397 2.03601e+52
0.0126748 11.3706 4.77892 2.13663e+53 10.746 4.09543 9.13164e+51 12.5924 3.21941 2.05611e+52
0.0127748 11.3568 4.76443 2.12248e+53 10.7432 4.10136 9.29857e+51 12.6034 3.22598 2.07644e+52
0.0128748 11.343 4.74994 2.10833e+53 10.7403 4.10729 9.4655e+51 12.6143 3.23255 2.09677e+52
0.0129748 11.3301 4.74336 2.09623e+53 10.7417 4.11135 9.64183e+51 12.6287 3.23822 2.11847e+52
0.0130748 11.3173 4.73813 2.08447e+53 10.7437 4.11508 9.81977e+51 12.6436 3.24373 2.1404e+52
0.0131748 11.305 4.73524 2.07297e+53 10.7462 4.11869 9.99673e+51 12.6602 3.24812 2.16229e+52
0.0132748 11.2936 4.73794 2.06206e+53 10.7496 4.12199 1.01713e+52 12.6807 3.2498 2.18408e+52
0.0133748 11.2822 4.74065 2.05115e+53 10.7531 4.1253 1.03459e+52 12.7011 3.25148 2.20587e+52
0.0134748 11.2692 4.73772 2.03784e+53 10.7558 4.12841 1.05158e+52 12.7204 3.25212 2.22685e+52
0.0135748 11.2556 4.73276 2.02366e+53 10.7582 4.13145 1.06839e+52 12.7391 3.25238 2.24752e+52
0.0136748 11.2419 4.7262 2.00957e+53 10.7604 4.13472 1.0852e+52 12.7568 3.25314 2.26805e+52
0.0137748 11.2277 4.71208 1.99589e+53 10.7614 4.13908 1.10204e+52 12.7691 3.25629 2.28786e+52
0.0138748 11.2135 4.69796 1.9822e+53 10.7625 4.14344 1.11887e+52 12.7815 3.25945 2.30767e+52
0.0139748 11.2014 4.68605 1.97073e+53 10.7654 4.14645 1.13616e+52 12.7936 3.26345 2.32766e+52
0.0140748 11.1907 4.67554 1.96063e+53 10.7694 4.14859 1.15374e+52 12.8056 3.26798 2.34777e+52
0.0141748 11.18 4.66559 1.95059e+53 10.7736 4.15064 1.17131e+52 12.8178 3.2724 2.36786e+52
0.0142748 11.1707 4.66554 1.94135e+53 10.7807 4.15101 1.18875e+52 12.8348 3.27477 2.38753e+52
0.0143748 11.1614 4.6655 1.93211e+53 10.7877 4.15138 1.20619e+52 12.8518 3.27715 2.40721e+52
0.0144748 11.1511 4.66431 1.92155e+53 10.7939 4.15173 1.22313e+52 12.8684 3.27858 2.426e+52
0.0145748 11.1398 4.66195 1.90965e+53 10.7994 4.15204 1.23956e+52 12.8845 3.27906 2.4439e+52
0.0146748 11.1285 4.65959 1.89774e+53 10.8048 4.15236 1.25598e+52 12.9007 3.27953 2.4618e+52
0.0147748 11.1145 4.64525 1.88392e+53 10.8068 4.15426 1.27187e+52 12.9108 3.28059 2.47842e+52
0.0148748 11.1004 4.63006 1.86997e+53 10.8085 4.15627 1.28772e+52 12.9204 3.28168 2.49494e+52
0.0149748 11.0865 4.61597 1.85683e+53 10.8099 4.15993 1.30369e+52 12.9292 3.28359 2.51144e+52
0.0150748 11.073 4.60372 1.84505e+53 10.8108 4.16632 1.31984e+52 12.9365 3.28686 2.52791e+52
0.0151748 11.0595 4.59147 1.83327e+53 10.8117 4.17272 1.33599e+52 12.9438 3.29013 2.54438e+52
0.0152748 11.0466 4.58957 1.82272e+53 10.8145 4.18029 1.35245e+52 12.9542 3.29415 2.56095e+52
0.0153748 11.0338 4.59001 1.81244e+53 10.8179 4.18812 1.369e+52 12.9654 3.29833 2.57755e+52
0.0154748 11.0203 4.59012 1.80154e+53 10.8214 4.19497 1.38542e+52 12.9765 3.30204 2.59362e+52
0.0155748 11.0045 4.58924 1.78877e+53 10.8254 4.19892 1.4015e+52 12.9874 3.3044 2.60817e+52
0.0156748 10.9888 4.58836 1.77601e+53 10.8294 4.20288 1.41758e+52 12.9984 3.30675 2.62271e+52
0.0157748 10.9732 4.58052 1.76362e+53 10.833 4.20384 1.4337e+52 13.0058 3.30824 2.63598e+52
0.0158748 10.9576 4.56962 1.75139e+53 10.8364 4.20349 1.44983e+52 13.0116 3.30936 2.64869e+52
0.0159748 10.9425 4.55907 1.7396e+53 10.84 4.20341 1.46607e+52 13.0171 3.31061 2.66144e+52
0.0160748 10.9302 4.55082 1.7306e+53 10.8438 4.20502 1.48301e+52 13.0212 3.31275 2.67439e+52
0.0161748 10.9179 4.54256 1.72161e+53 10.8475 4.20664 1.49995e+52 13.0254 3.31488 2.68734e+52
0.0162748 10.9062 4.54067 1.71322e+53 10.8524 4.21047 1.51743e+52 13.0321 3.31733 2.70089e+52
0.0163748 10.895 4.54347 1.70529e+53 10.8579 4.21596 1.53531e+52 13.0407 3.32 2.71488e+52
0.0164748 10.8837 4.54625 1.69726e+53 10.8635 4.22144 1.55317e+52 13.0494 3.32261 2.72879e+52
0.0165748 10.8708 4.54857 1.68736e+53 10.8685 4.22706 1.57072e+52 13.0592 3.32377 2.7411e+52
0.0166748 10.8579 4.55089 1.67745e+53 10.8736 4.23267 1.58826e+52 13.0691 3.32494 2.7534e+52
0.0167748 10.8441 4.54763 1.6669e+53 10.8774 4.23759 1.60567e+52 13.0765 3.3256 2.76474e+52
0.0168748 10.8295 4.5393 1.65578e+53 10.88 4.24188 1.62297e+52 13.0819 3.32578 2.7752e+52
0.0169748 10.815 4.53097 1.64465e+53 10.8826 4.24616 1.64026e+52 13.0872 3.32597 2.78566e+52
0.0170748 10.8014 4.52149 1.6348e+53 10.8856 4.25005 1.65846e+52 13.0895 3.32718 2.79596e+52
0.0171748 10.7878 4.51202 1.62495e+53 10.8885 4.25394 1.67666e+52 13.0918 3.3284 2.80625e+52
0.0172748 10.7749 4.50692 1.61599e+53 10.8926 4.25781 1.6955e+52 13.0942 3.33046 2.81698e+52
0.0173748 10.7628 4.50675 1.60804e+53 10.8978 4.26166 1.71504e+52 13.0966 3.33348 2.82818e+52
0.0174748 10.7508 4.50658 1.60009e+53 10.9031 4.26551 1.73459e+52 13.0991 3.3365 2.83938e+52
0.0175748 10.739 4.50999 1.59203e+53 10.9099 4.26865 1.75482e+52 13.104 3.33955 2.85164e+52
0.0176748 10.7272 4.51361 1.58397e+53 10.9167 4.27176 1.77509e+52 13.109 3.34261 2.86396e+52
0.0177748 10.7148 4.515 1.5752e+53 10.9235 4.27361 1.79516e+52 13.1152 3.34416 2.87603e+52
0.0178748 10.7016 4.51327 1.56545e+53 10.9303 4.27371 1.81496e+52 13.1227 3.3436 2.88774e+52
0.0179748 10.6883 4.51155 1.5557e+53 10.937 4.27382 1.83477e+52 13.1303 3.34304 2.89946e+52
0.0180748 10.6769 4.50258 1.54706e+53 10.9434 4.27206 1.85425e+52 13.1376 3.34035 2.91023e+52
0.0181748 10.6658 4.49271 1.53856e+53 10.9498 4.27007 1.8737e+52 13.1449 3.33741 2.92088e+52
0.0182748 10.6558 4.48225 1.5308e+53 10.956 4.26856 1.89324e+52 13.1515 3.33508 2.93161e+52
0.0183748 10.648 4.47073 1.52434e+53 10.9621 4.26787 1.91294e+52 13.1567 3.33384 2.94246e+52
0.0184748 10.6401 4.45921 1.51787e+53 10.9681 4.26718 1.93264e+52 13.1619 3.33259 2.9533e+52
0.0185748 10.6323 4.45392 1.51193e+53 10.9742 4.2684 1.95284e+52 13.1664 3.33309 2.96486e+52
0.0186748 10.6245 4.44983 1.50609e+53 10.9803 4.27001 1.97314e+52 13.1708 3.33394 2.97656e+52
0.0187748 10.6166 4.44799 1.5004e+53 10.9868 4.27174 1.99372e+52 13.1753 3.33512 2.98845e+52
0.0188748 10.6086 4.45113 1.49506e+53 10.9941 4.27377 2.01494e+52 13.18 3.33708 3.00075e+52
0.0189748 10.6006 4.45427 1.48971e+53 11.0015 4.2758 2.03615e+52 13.1848 3.33903 3.01306e+52
0.0190748 10.5922 4.4583 1.48388e+53 11.0099 4.2771 2.05781e+52 13.1898 3.34139 3.02576e+52
0.0191748 10.5837 4.46258 1.47792e+53 11.0186 4.27821 2.0796e+52 13.1949 3.34386 3.03857e+52
0.0192748 10.5744 4.46626 1.47143e+53 11.0272 4.27904 2.10138e+52 13.2002 3.34614 3.05155e+52
0.0193748 10.5628 4.4682 1.46344e+53 11.0356 4.27903 2.12315e+52 13.206 3.34788 3.06501e+52
0.0194748 10.5511 4.47015 1.45545e+53 11.0439 4.27902 2.14492e+52 13.2117 3.34961 3.07848e+52
0.0195748 10.5396 4.46995 1.44772e+53 11.0524 4.27822 2.16671e+52 13.2191 3.3497 3.09214e+52
0.0196748 10.528 4.46896 1.44008e+53 11.061 4.27713 2.1885e+52 13.2271 3.34918 3.10587e+52
0.0197748 10.5177 4.46707 1.4331e+53 11.0696 4.27618 2.21022e+52 13.2355 3.34826 3.11947e+52
0.0198748 10.512 4.46164 1.42871e+53 11.0781 4.27582 2.23165e+52 13.2452 3.34577 3.13256e+52
0.0199748 10.5062 4.4562 1.42431e+53 11.0867 4.27546 2.25308e+52 13.2549 3.34328 3.14565e+52
0.0200748 10.5035 4.448 1.42146e+53 11.0951 4.27497 2.27428e+52 13.2643 3.34071 3.1585e+52
0.0201748 10.5023 4.43849 1.41933e+53 11.1034 4.27441 2.29536e+52 13.2735 3.33811 3.17125e+52
0.0202748 10.501 4.42919 1.41717e+53 11.1117 4.27352 2.31643e+52 13.2824 3.33563 3.18398e+52
0.0203748 10.499 4.42115 1.4148e+53 11.1202 4.27073 2.33738e+52 13.2903 3.33383 3.19669e+52
0.0204748 10.4969 4.41311 1.41243e+53 11.1287 4.26794 2.35834e+52 13.2981 3.33203 3.2094e+52
0.0205748 10.4939 4.40794 1.40974e+53 11.1375 4.2641 2.37936e+52 13.3054 3.33067 3.22213e+52
0.0206748 10.4902 4.4045 1.40685e+53 11.1465 4.25963 2.40043e+52 13.3124 3.32957 3.23487e+52
0.0207748 10.4866 4.40146 1.40402e+53 11.1555 4.25525 2.42152e+52 13.3194 3.32855 3.24763e+52
0.0208748 10.4833 4.40208 1.40174e+53 11.1643 4.25175 2.44281e+52 13.326 3.32822 3.26058e+52
0.0209748 10.48 4.4027 1.39945e+53 11.1732 4.24825 2.46409e+52 13.3326 3.32788 3.27353e+52
0.0210748 10.4775 4.40447 1.39764e+53 11.1818 4.24617 2.48549e+52 13.3392 3.32798 3.28668e+52
0.0211748 10.4757 4.40712 1.39617e+53 11.1903 4.24518 2.50699e+52 13.346 3.3284 3.3e+52
0.0212748 10.4738 4.40975 1.39467e+53 11.1988 4.24425 2.5285e+52 13.3527 3.32883 3.31333e+52
0.0213748 10.4711 4.41216 1.39216e+53 11.2071 4.24478 2.55017e+52 13.3598 3.32959 3.32704e+52
