# If you use this flux, cite http://wwwmpa.mpa-garching.mpg.de/ccsnarchive/data/Huedepohl2014_phd_thesis/, 
# Huedepohl, L. (2014), Neutrinos from the Formation, Cooling and Black Hole Collapse of Neutron Stars, PhD. Thesis, Technische Universitat Muenchen
# time (s), <energy> (MeV), alpha, luminosity (foe/s), for nu_e, nu_e_bar, nu_mu
-0.000454267 8.40983 6.32182 1.1421e+53 0 0 0 0 0 0
-0.000354267 8.42901 6.31575 1.14682e+53 3.14813 1.93669 1.05195e+45 3.62919 1.77401 1.14706e+45
-0.000254267 8.44848 6.3101 1.15075e+53 3.05766 2.39207 1.90126e+45 3.4419 2.29542 1.70324e+45
-0.000154267 8.46824 6.30495 1.15385e+53 3.03724 2.6061 3.76122e+45 3.38653 2.60555 2.83096e+45
-5.42667e-05 8.4883 6.30043 1.15605e+53 3.0387 2.72216 6.60927e+45 3.37029 2.80818 4.54056e+45
4.57333e-05 8.50893 6.29667 1.15928e+53 3.05134 2.7831 1.05776e+46 3.37212 2.94423 6.96126e+45
0.000145733 8.52948 6.29355 1.15914e+53 3.0698 2.80887 1.55991e+46 3.38369 3.03269 1.0073e+46
0.000245733 8.5504 6.29118 1.15786e+53 3.09513 2.8101 2.17746e+46 3.40466 3.08815 1.39658e+46
0.000345733 8.57126 6.28928 1.15539e+53 3.12789 2.79128 2.91742e+46 3.43503 3.11736 1.87209e+46
0.000445733 8.59213 6.28804 1.15172e+53 3.1677 2.75593 3.78304e+46 3.47429 3.1232 2.44072e+46
0.000545733 8.61318 6.28763 1.1468e+53 3.21333 2.70856 4.77107e+46 3.51398 3.08166 3.12609e+46
0.000645733 8.63444 6.28799 1.14055e+53 3.26233 2.65526 5.8599e+46 3.35941 2.85133 4.93825e+46
0.000745733 8.65582 6.289 1.13289e+53 3.31206 2.60113 7.01845e+46 3.24687 3.50406 1.16598e+47
0.000845733 8.67728 6.29068 1.12366e+53 3.3603 2.54949 8.21743e+46 3.29232 3.85293 2.74241e+47
0.000945733 8.69878 6.29302 1.11286e+53 3.40577 2.50174 9.43248e+46 3.35299 3.94063 6.05881e+47
0.00104573 8.72029 6.29605 1.10045e+53 3.44788 2.45861 1.06504e+47 3.44055 3.94653 1.26953e+48
0.00114573 8.74177 6.29974 1.08639e+53 3.4865 2.42125 1.18715e+47 3.53843 3.95426 2.61842e+48
0.00124573 8.76314 6.30405 1.07069e+53 3.5561 2.44969 1.37942e+47 3.6409 3.98877 5.24906e+48
0.00134573 8.78435 6.30889 1.05345e+53 3.84174 2.94237 2.09232e+47 3.74006 4.02681 9.98915e+48
0.00144573 8.80534 6.31416 1.03451e+53 4.23724 4.01025 4.18065e+47 3.84062 4.08732 1.85626e+49
0.00154573 8.82617 6.3198 1.0139e+53 4.45891 4.80469 8.68304e+47 3.94823 4.15673 3.3443e+49
0.00164573 8.84705 6.32631 9.91628e+52 4.5549 5.08993 1.76504e+48 4.06379 4.22747 5.82572e+49
0.00174573 8.86813 6.33397 9.6815e+52 4.60035 5.11029 3.15912e+48 4.18893 4.28727 9.25439e+49
0.00184573 8.88991 6.34485 9.43058e+52 4.63399 5.04563 5.75454e+48 4.33831 4.30918 1.44219e+50
0.00194573 8.91224 6.35886 9.16917e+52 4.6984 5.03337 9.81228e+48 4.51282 4.29026 2.13474e+50
0.00204573 8.93414 6.37312 8.9036e+52 4.79585 5.01479 1.46794e+49 4.70782 4.24945 2.97722e+50
0.00214573 8.9551 6.38641 8.63569e+52 4.93458 4.96305 2.02502e+49 4.9258 4.19017 3.9913e+50
0.00224573 8.97121 6.39012 8.38013e+52 5.10641 4.84729 2.54804e+49 5.17336 4.12369 5.26147e+50
0.00234573 8.98349 6.387 8.13878e+52 5.2912 4.70163 3.03864e+49 5.43777 4.0581 6.70436e+50
0.00244573 8.98802 6.37095 7.93144e+52 5.48676 4.51966 3.45713e+49 5.72865 4.00199 8.46216e+50
0.00254573 8.98618 6.3491 7.78384e+52 5.67736 4.33446 3.82363e+49 6.03743 3.96504 1.05983e+51
0.00264573 8.9811 6.3243 7.66667e+52 5.86542 4.14761 4.16365e+49 6.35534 3.93785 1.29271e+51
0.00274573 8.97724 6.30654 7.65553e+52 6.03349 3.97986 4.46534e+49 6.67393 3.93675 1.57484e+51
0.00284573 8.97377 6.29098 7.67762e+52 6.19528 3.8181 4.75502e+49 6.99273 3.94383 1.87241e+51
0.00294573 8.98833 6.28768 7.85663e+52 6.33113 3.68396 5.01706e+49 7.29135 3.96736 2.21894e+51
0.00304573 9.00724 6.28506 8.06483e+52 6.46293 3.5548 5.27597e+49 7.58582 3.9925 2.57236e+51
0.00314573 9.05804 6.27803 8.4527e+52 6.57402 3.45534 5.52638e+49 7.8528 4.01989 2.9566e+51
0.00324573 9.11874 6.26443 8.89231e+52 6.68172 3.36247 5.78079e+49 8.11262 4.04601 3.34377e+51
0.00334573 9.21077 6.23002 9.49581e+52 6.77868 3.29053 6.0479e+49 8.34981 4.06812 3.74022e+51
0.00344573 9.31737 6.18662 1.01897e+53 6.87312 3.22758 6.3335e+49 8.57644 4.08523 4.13489e+51
0.00354573 9.44587 6.12969 1.10194e+53 6.96377 3.17814 6.6469e+49 8.78722 4.09482 4.52688e+51
0.00364573 9.58883 6.06853 1.19721e+53 7.05433 3.13929 7.00332e+49 8.98475 4.09692 4.90999e+51
0.00374573 9.7432 6.00402 1.30219e+53 7.14482 3.10881 7.39366e+49 9.17185 4.0931 5.28608e+51
0.00384573 9.90806 5.94217 1.42204e+53 7.23928 3.09106 7.8692e+49 9.34318 4.07971 5.64416e+51
0.00394573 10.077 5.88137 1.54772e+53 7.33529 3.07831 8.3781e+49 9.50833 4.06257 5.99519e+51
0.00404573 10.2481 5.82801 1.68377e+53 7.43779 3.07547 8.99143e+49 9.66142 4.03883 6.32804e+51
0.00414573 10.4203 5.77918 1.82611e+53 7.54422 3.07866 9.66823e+49 9.80718 4.01107 6.64983e+51
0.00424573 10.5891 5.74 1.97569e+53 7.65928 3.09035 1.04988e+50 9.9421 3.9784 6.95092e+51
0.00434573 10.7558 5.70651 2.12955e+53 7.77944 3.10705 1.14203e+50 10.0706 3.94283 7.23978e+51
0.00444573 10.9192 5.67613 2.28405e+53 7.90293 3.12643 1.24299e+50 10.1951 3.90551 7.51786e+51
0.00454573 11.0725 5.6553 2.44051e+53 8.03667 3.15405 1.3711e+50 10.3071 3.86276 7.76269e+51
0.00464573 11.2257 5.63448 2.59697e+53 8.17041 3.18167 1.49922e+50 10.4192 3.82002 8.00752e+51
0.00474573 11.3629 5.61837 2.74378e+53 8.31084 3.21615 1.66616e+50 10.518 3.77259 8.21105e+51
0.00484573 11.4962 5.60341 2.88825e+53 8.45291 3.2523 1.84251e+50 10.6136 3.72403 8.40457e+51
0.00494573 11.62 5.58909 3.02315e+53 8.59514 3.29132 2.04434e+50 10.7023 3.67481 8.58121e+51
0.00504573 11.7294 5.57571 3.1437e+53 8.73764 3.33466 2.2844e+50 10.7806 3.62461 8.73255e+51
0.00514573 11.8388 5.56233 3.26425e+53 8.88014 3.378 2.52445e+50 10.8589 3.57441 8.88389e+51
0.00524573 11.9278 5.54959 3.35985e+53 9.01565 3.4239 2.83414e+50 10.9233 3.52721 9.01332e+51
0.00534573 12.0144 5.53692 3.45257e+53 9.15034 3.4701 3.15191e+50 10.9861 3.48035 9.14021e+51
0.00544573 12.0937 5.52392 3.53511e+53 9.27984 3.51503 3.501e+50 11.0445 3.43553 9.26163e+51
0.00554573 12.1605 5.51034 3.60026e+53 9.40045 3.55782 3.90369e+50 11.0955 3.39421 9.37371e+51
0.00564573 12.2272 5.49677 3.66541e+53 9.52107 3.6006 4.30637e+50 11.1464 3.35289 9.48578e+51
0.00574573 12.2793 5.48109 3.70896e+53 9.6262 3.63614 4.77815e+50 11.1891 3.31597 9.58622e+51
0.00584573 12.3284 5.46501 3.74825e+53 9.72829 3.67026 5.26352e+50 11.23 3.27991 9.68436e+51
0.00594573 12.3727 5.44794 3.77974e+53 9.82381 3.70082 5.7722e+50 11.2679 3.24546 9.77825e+51
0.00604573 12.4064 5.42882 3.79473e+53 9.9054 3.72387 6.33024e+50 11.2994 3.2144 9.86312e+51
0.00614573 12.4402 5.40969 3.80972e+53 9.98699 3.74692 6.88827e+50 11.3308 3.18334 9.948e+51
0.00624573 12.4633 5.38893 3.80777e+53 10.0535 3.76331 7.49957e+50 11.357 3.15667 1.00246e+52
0.00634573 12.4837 5.36777 3.80175e+53 10.1164 3.77809 8.12367e+50 11.3818 3.13104 1.00992e+52
0.00644573 12.5011 5.34627 3.79163e+53 10.1751 3.79124 8.76604e+50 11.4055 3.10703 1.01735e+52
0.00654573 12.5105 5.32391 3.77132e+53 10.2234 3.80032 9.45377e+50 11.4262 3.087 1.02471e+52
0.00664573 12.5199 5.30156 3.75102e+53 10.2717 3.80941 1.01415e+51 11.447 3.06697 1.03206e+52
0.00674573 12.5226 5.2785 3.72357e+53 10.3124 3.81595 1.08821e+51 11.4659 3.051 1.0399e+52
0.00684573 12.5233 5.25524 3.69409e+53 10.3508 3.82177 1.16376e+51 11.4844 3.03619 1.04787e+52
0.00694573 12.5219 5.23167 3.66289e+53 10.3871 3.82722 1.24119e+51 11.5023 3.02249 1.05604e+52
0.00704573 12.5145 5.20724 3.62695e+53 10.4174 3.83165 1.3238e+51 11.5184 3.01188 1.06477e+52
0.00714573 12.5072 5.18282 3.59101e+53 10.4476 3.83608 1.4064e+51 11.5346 3.00127 1.07349e+52
0.00724573 12.4955 5.15901 3.55297e+53 10.4731 3.84029 1.4946e+51 11.5497 2.99397 1.08344e+52
0.00734573 12.4824 5.13542 3.51422e+53 10.4969 3.84441 1.58469e+51 11.5645 2.98779 1.09379e+52
0.00744573 12.4686 5.11265 3.47551e+53 10.5196 3.8487 1.67628e+51 11.5796 2.98241 1.10442e+52
0.00754573 12.4525 5.09272 3.43694e+53 10.5384 3.85353 1.77299e+51 11.5957 2.97978 1.11601e+52
0.00764573 12.4365 5.0728 3.39838e+53 10.5573 3.85836 1.86969e+51 11.6118 2.97714 1.12759e+52
0.00774573 12.4183 5.05406 3.35941e+53 10.5755 3.86474 1.97284e+51 11.6286 2.9762 1.14013e+52
0.00784573 12.3993 5.03584 3.32026e+53 10.5936 3.8718 2.07882e+51 11.6456 2.976 1.15309e+52
0.00794573 12.3803 5.01839 3.28167e+53 10.6112 3.87929 2.18571e+51 11.6631 2.9761 1.16622e+52
0.00804573 12.3618 5.00484 3.2459e+53 10.6266 3.88892 2.29722e+51 11.6833 2.97772 1.18018e+52
0.00814573 12.3433 4.99129 3.21014e+53 10.6419 3.89855 2.40872e+51 11.7035 2.97934 1.19414e+52
0.00824573 12.3242 4.97895 3.17483e+53 10.6554 3.90806 2.52287e+51 11.7256 2.98122 1.20862e+52
0.00834573 12.3047 4.96729 3.13979e+53 10.6679 3.9175 2.63854e+51 11.7487 2.98323 1.2234e+52
0.00844573 12.2852 4.95572 3.10487e+53 10.6801 3.92695 2.75444e+51 11.7721 2.98523 1.23823e+52
0.00854573 12.2656 4.94498 3.07114e+53 10.6898 3.93645 2.87252e+51 11.797 2.98701 1.25343e+52
0.00864573 12.246 4.93423 3.03741e+53 10.6996 3.94596 2.99059e+51 11.8219 2.9888 1.26862e+52
0.00874573 12.2253 4.92302 3.00361e+53 10.7053 3.95536 3.10857e+51 11.8467 2.99089 1.28437e+52
0.00884573 12.2037 4.91146 2.96976e+53 10.708 3.96469 3.22648e+51 11.8714 2.99322 1.30053e+52
0.00894573 12.1821 4.89999 2.93602e+53 10.7105 3.97407 3.34448e+51 11.8962 2.99556 1.31672e+52
0.00904573 12.1602 4.89044 2.9046e+53 10.7105 3.98436 3.4642e+51 11.9216 2.99803 1.33346e+52
0.00914573 12.1383 4.88089 2.87318e+53 10.7104 3.99465 3.58392e+51 11.9471 3.0005 1.35019e+52
0.00924573 12.1158 4.87074 2.84122e+53 10.7114 4.00375 3.70686e+51 11.9724 3.00325 1.36742e+52
0.00934573 12.0926 4.86004 2.80878e+53 10.7134 4.01177 3.83276e+51 11.9975 3.00625 1.38508e+52
0.00944573 12.0694 4.84935 2.77633e+53 10.7153 4.01979 3.95866e+51 12.0227 3.00926 1.40275e+52
0.00954573 12.0458 4.8412 2.74668e+53 10.7152 4.02878 4.08628e+51 12.0488 3.01196 1.42131e+52
0.00964573 12.0222 4.83306 2.71706e+53 10.715 4.03777 4.21391e+51 12.075 3.01466 1.43988e+52
0.00974573 11.9994 4.8259 2.6884e+53 10.7133 4.04822 4.34185e+51 12.1012 3.01759 1.45872e+52
0.00984573 11.9775 4.81984 2.66086e+53 10.7098 4.06032 4.47014e+51 12.1274 3.02079 1.47788e+52
0.00994573 11.9556 4.81379 2.63332e+53 10.7064 4.07242 4.59842e+51 12.1536 3.02399 1.49703e+52
0.0100457 11.9325 4.80633 2.60575e+53 10.7054 4.08123 4.73471e+51 12.1781 3.02783 1.51701e+52
0.0101457 11.9092 4.79874 2.57819e+53 10.7047 4.08974 4.87173e+51 12.2024 3.03172 1.53706e+52
0.0102457 11.8866 4.79216 2.5518e+53 10.7048 4.09771 5.00956e+51 12.2272 3.0354 1.55708e+52
0.0103457 11.8652 4.78737 2.5275e+53 10.7063 4.10474 5.14885e+51 12.2527 3.03869 1.57702e+52
0.0104457 11.8438 4.78258 2.5032e+53 10.7077 4.11176 5.28814e+51 12.2783 3.04198 1.59696e+52
0.0105457 11.8238 4.77857 2.4799e+53 10.7074 4.12027 5.42483e+51 12.3037 3.04548 1.61716e+52
0.0106457 11.8041 4.77475 2.45683e+53 10.7066 4.12913 5.56089e+51 12.329 3.04903 1.63743e+52
0.0107457 11.7839 4.77045 2.4338e+53 10.7059 4.1374 5.69809e+51 12.3535 3.05274 1.65788e+52
0.0108457 11.7622 4.76473 2.41086e+53 10.7053 4.14391 5.83861e+51 12.3756 3.05689 1.67891e+52
0.0109457 11.7405 4.759 2.38793e+53 10.7048 4.15043 5.97913e+51 12.3976 3.06104 1.69993e+52
0.0110457 11.7194 4.75354 2.36647e+53 10.7067 4.15439 6.12311e+51 12.4198 3.06465 1.7206e+52
0.0111457 11.6984 4.74819 2.34564e+53 10.7097 4.15724 6.26857e+51 12.4421 3.06802 1.74111e+52
0.0112457 11.6779 4.74293 2.32504e+53 10.7127 4.15999 6.41374e+51 12.4644 3.0713 1.76158e+52
0.0113457 11.6601 4.73824 2.30574e+53 10.7158 4.16209 6.55716e+51 12.4875 3.07397 1.78181e+52
0.0114457 11.6422 4.73355 2.28644e+53 10.7188 4.16419 6.70059e+51 12.5105 3.07665 1.80204e+52
0.0115457 11.6233 4.72614 2.26625e+53 10.7201 4.16673 6.84277e+51 12.5317 3.07947 1.8226e+52
0.0116457 11.6036 4.71681 2.24543e+53 10.72 4.16956 6.98409e+51 12.5518 3.0824 1.84339e+52
0.0117457 11.5839 4.70746 2.22466e+53 10.7201 4.17244 7.12556e+51 12.5717 3.08535 1.86419e+52
0.0118457 11.5635 4.6973 2.20502e+53 10.7205 4.17648 7.27143e+51 12.5902 3.08904 1.88518e+52
0.0119457 11.5432 4.68714 2.18539e+53 10.7209 4.18051 7.4173e+51 12.6086 3.09273 1.90618e+52
0.0120457 11.524 4.67898 2.16661e+53 10.7232 4.18496 7.56631e+51 12.6281 3.09653 1.92706e+52
0.0121457 11.5061 4.67298 2.14875e+53 10.7275 4.18987 7.71871e+51 12.6489 3.10045 1.94781e+52
0.0122457 11.4881 4.66698 2.1309e+53 10.7318 4.19477 7.87112e+51 12.6697 3.10436 1.96856e+52
0.0123457 11.4685 4.6618 2.11136e+53 10.7364 4.19856 8.02479e+51 12.6893 3.10828 1.98914e+52
0.0124457 11.4488 4.65668 2.09168e+53 10.741 4.20227 8.17857e+51 12.7089 3.11219 2.0097e+52
0.0125457 11.428 4.65085 2.07193e+53 10.7449 4.20537 8.33199e+51 12.7268 3.11603 2.03008e+52
0.0126457 11.4053 4.64381 2.05205e+53 10.7474 4.20745 8.4848e+51 12.7419 3.11976 2.05016e+52
0.0127457 11.3827 4.63677 2.03217e+53 10.7499 4.20953 8.63761e+51 12.757 3.12348 2.07024e+52
0.0128457 11.3634 4.63055 2.01561e+53 10.7535 4.21253 8.79279e+51 12.7727 3.127 2.09022e+52
0.0129457 11.3448 4.62451 1.99978e+53 10.7574 4.21573 8.94849e+51 12.7885 3.13047 2.11019e+52
0.0130457 11.327 4.61899 1.98412e+53 10.7619 4.21929 9.10447e+51 12.8052 3.13375 2.13007e+52
0.0131457 11.3111 4.61492 1.96893e+53 10.7679 4.22386 9.26124e+51 12.8241 3.13648 2.14972e+52
0.0132457 11.2953 4.61086 1.95374e+53 10.774 4.22843 9.418e+51 12.8431 3.13921 2.16937e+52
0.0133457 11.2764 4.60599 1.93639e+53 10.7789 4.23268 9.57346e+51 12.86 3.14171 2.18837e+52
0.0134457 11.2564 4.60079 1.91815e+53 10.7834 4.23679 9.72837e+51 12.876 3.14413 2.20711e+52
0.0135457 11.236 4.59517 1.9e+53 10.7876 4.24044 9.88318e+51 12.891 3.14663 2.22563e+52
0.0136457 11.2141 4.58725 1.88232e+53 10.7907 4.24161 1.00374e+52 12.901 3.14957 2.24288e+52
0.0137457 11.1922 4.57933 1.86465e+53 10.7938 4.24278 1.01915e+52 12.911 3.15252 2.26013e+52
0.0138457 11.1727 4.57205 1.84918e+53 10.7979 4.24357 1.03468e+52 12.9213 3.15602 2.27759e+52
0.0139457 11.1547 4.56521 1.8352e+53 10.8027 4.2441 1.05028e+52 12.9317 3.1599 2.2952e+52
0.0140457 11.1367 4.55837 1.82122e+53 10.8076 4.24465 1.06588e+52 12.9421 3.16377 2.3128e+52
0.0141457 11.1204 4.5549 1.80758e+53 10.813 4.24814 1.08113e+52 12.957 3.16695 2.33083e+52
0.0142457 11.1041 4.55144 1.79393e+53 10.8185 4.25164 1.09637e+52 12.9719 3.17013 2.34885e+52
0.0143457 11.0863 4.54771 1.77934e+53 10.8232 4.25527 1.11146e+52 12.9859 3.1727 2.36621e+52
0.0144457 11.0663 4.54361 1.76337e+53 10.8268 4.25909 1.12631e+52 12.9985 3.17437 2.3826e+52
0.0145457 11.0462 4.53951 1.7474e+53 10.8303 4.26291 1.14116e+52 13.0112 3.17603 2.39899e+52
0.0146457 11.0261 4.53416 1.73279e+53 10.8335 4.26515 1.15625e+52 13.0194 3.17787 2.41403e+52
0.0147457 11.0061 4.52852 1.7185e+53 10.8366 4.26701 1.1714e+52 13.0265 3.17974 2.42875e+52
0.0148457 10.9866 4.52311 1.70477e+53 10.8399 4.26869 1.18669e+52 13.0335 3.18182 2.44346e+52
0.0149457 10.9693 4.51859 1.69305e+53 10.8443 4.26974 1.20247e+52 13.0398 3.18464 2.45813e+52
0.0150457 10.952 4.51406 1.68133e+53 10.8487 4.27079 1.21826e+52 13.0461 3.18747 2.47279e+52
0.0151457 10.9355 4.51015 1.66948e+53 10.8542 4.27106 1.23438e+52 13.055 3.18942 2.48785e+52
0.0152457 10.9194 4.50661 1.65753e+53 10.8605 4.27084 1.25071e+52 13.0654 3.19083 2.50315e+52
0.0153457 10.9033 4.50301 1.64557e+53 10.8668 4.27061 1.26704e+52 13.0758 3.19219 2.51843e+52
0.0154457 10.8868 4.49685 1.63286e+53 10.8725 4.26975 1.28326e+52 13.087 3.19088 2.53275e+52
0.0155457 10.8703 4.49069 1.62015e+53 10.8783 4.26888 1.29947e+52 13.0982 3.18956 2.54707e+52
0.0156457 10.8536 4.48392 1.60776e+53 10.8834 4.26862 1.31559e+52 13.1077 3.18842 2.56064e+52
0.0157457 10.8367 4.47631 1.5958e+53 10.8876 4.2692 1.33158e+52 13.1147 3.18751 2.57319e+52
0.0158457 10.8198 4.4687 1.58384e+53 10.8917 4.26978 1.34757e+52 13.1217 3.1866 2.58575e+52
0.0159457 10.8035 4.46288 1.57281e+53 10.8965 4.2708 1.36391e+52 13.1264 3.18787 2.59776e+52
0.0160457 10.7872 4.45744 1.56198e+53 10.9014 4.27192 1.38033e+52 13.1306 3.18961 2.60965e+52
0.0161457 10.7714 4.45304 1.5514e+53 10.9068 4.27321 1.39692e+52 13.1349 3.19185 2.62172e+52
0.0162457 10.7567 4.45214 1.54168e+53 10.9135 4.27507 1.41411e+52 13.1397 3.19579 2.63436e+52
0.0163457 10.742 4.45123 1.53197e+53 10.9202 4.27693 1.4313e+52 13.1446 3.19972 2.64701e+52
0.0164457 10.727 4.4508 1.52177e+53 10.9272 4.27877 1.44867e+52 13.1507 3.20326 2.6601e+52
0.0165457 10.7119 4.45063 1.51129e+53 10.9344 4.2806 1.46615e+52 13.1576 3.20656 2.67345e+52
0.0166457 10.6968 4.45039 1.50078e+53 10.9415 4.28237 1.4836e+52 13.1645 3.20975 2.68675e+52
0.0167457 10.6804 4.44797 1.48948e+53 10.9471 4.28287 1.50036e+52 13.1716 3.21009 2.69849e+52
0.0168457 10.6639 4.44556 1.47817e+53 10.9527 4.28338 1.51712e+52 13.1786 3.21043 2.71023e+52
0.0169457 10.6484 4.44278 1.46758e+53 10.9579 4.28397 1.5338e+52 13.1849 3.21032 2.72142e+52
0.0170457 10.6341 4.43954 1.4579e+53 10.9627 4.28469 1.55037e+52 13.1902 3.20963 2.7319e+52
0.0171457 10.6197 4.4363 1.44821e+53 10.9674 4.2854 1.56694e+52 13.1956 3.20894 2.74238e+52
0.0172457 10.6075 4.43371 1.44011e+53 10.973 4.28683 1.5843e+52 13.2 3.2096 2.75325e+52
0.0173457 10.5957 4.43124 1.43229e+53 10.9787 4.2884 1.6018e+52 13.2042 3.2105 2.76419e+52
0.0174457 10.5838 4.4292 1.42445e+53 10.9849 4.2899 1.61957e+52 13.2083 3.21184 2.77533e+52
0.0175457 10.5718 4.42844 1.4165e+53 10.9924 4.29121 1.63813e+52 13.2123 3.21452 2.7871e+52
0.0176457 10.5597 4.42769 1.40855e+53 10.9998 4.29253 1.65669e+52 13.2163 3.2172 2.79886e+52
0.0177457 10.5454 4.42718 1.39933e+53 11.0073 4.29313 1.67558e+52 13.2199 3.22024 2.81083e+52
0.0178457 10.5298 4.4268 1.38942e+53 11.0148 4.29336 1.69464e+52 13.2231 3.22347 2.82292e+52
0.0179457 10.5142 4.42636 1.37949e+53 11.0224 4.29346 1.71371e+52 13.2264 3.22662 2.835e+52
0.0180457 10.4976 4.42491 1.36917e+53 11.0305 4.29135 1.73314e+52 13.2302 3.22846 2.8469e+52
0.0181457 10.4809 4.42347 1.35886e+53 11.0385 4.28925 1.75257e+52 13.234 3.2303 2.8588e+52
0.0182457 10.466 4.42155 1.34937e+53 11.0474 4.28655 1.77209e+52 13.2392 3.231 2.87054e+52
0.0183457 10.4532 4.41906 1.34086e+53 11.0574 4.28316 1.79172e+52 13.2463 3.23033 2.88208e+52
0.0184457 10.4404 4.41657 1.33234e+53 11.0674 4.27977 1.81135e+52 13.2534 3.22967 2.89363e+52
0.0185457 10.4304 4.41332 1.32524e+53 11.0769 4.27754 1.83037e+52 13.2612 3.22802 2.90461e+52
0.0186457 10.421 4.40995 1.31837e+53 11.0864 4.27549 1.84929e+52 13.2691 3.22621 2.91551e+52
0.0187457 10.412 4.40689 1.31187e+53 11.0956 4.27389 1.86805e+52 13.2768 3.22473 2.92648e+52
0.0188457 10.4043 4.4047 1.30639e+53 11.1039 4.27354 1.88637e+52 13.2837 3.22417 2.93766e+52
0.0189457 10.3966 4.4025 1.30091e+53 11.1123 4.27319 1.90469e+52 13.2906 3.22361 2.94885e+52
0.0190457 10.3887 4.40118 1.29537e+53 11.1201 4.27353 1.92283e+52 13.2965 3.22441 2.96024e+52
0.0191457 10.3809 4.4003 1.28981e+53 11.1277 4.27421 1.94089e+52 13.302 3.22589 2.97174e+52
0.0192457 10.3727 4.39927 1.28408e+53 11.1353 4.27475 1.95893e+52 13.3072 3.22742 2.98315e+52
0.0193457 10.3607 4.39638 1.27624e+53 11.1414 4.2734 1.97672e+52 13.3093 3.22967 2.99357e+52
0.0194457 10.3487 4.3935 1.26839e+53 11.1476 4.27205 1.99452e+52 13.3115 3.23191 3.00398e+52
0.0195457 10.3355 4.39002 1.26003e+53 11.1538 4.27001 2.01238e+52 13.3129 3.23399 3.01381e+52
0.0196457 10.3209 4.3859 1.25109e+53 11.1599 4.26719 2.03033e+52 13.3135 3.23588 3.023e+52
0.0197457 10.3064 4.38177 1.24216e+53 11.166 4.26437 2.04828e+52 13.3141 3.23777 3.03219e+52
0.0198457 10.294 4.37893 1.23448e+53 11.1739 4.26304 2.06685e+52 13.3182 3.23803 3.04158e+52
0.0199457 10.2817 4.37613 1.22683e+53 11.1819 4.26176 2.08544e+52 13.3224 3.23824 3.05096e+52
0.0200457 10.2708 4.37352 1.21997e+53 11.1901 4.26109 2.10385e+52 13.3282 3.23737 3.06033e+52
0.0201457 10.2618 4.37113 1.21409e+53 11.1986 4.2612 2.12203e+52 13.336 3.23514 3.06969e+52
0.0202457 10.2529 4.36875 1.20821e+53 11.2072 4.26131 2.14021e+52 13.3438 3.23292 3.07904e+52
0.0203457 10.2454 4.36629 1.20305e+53 11.2142 4.26257 2.15724e+52 13.3516 3.23068 3.08841e+52
0.0204457 10.2381 4.36381 1.19795e+53 11.2212 4.26394 2.17418e+52 13.3594 3.22845 3.09778e+52
