# If you use this flux, cite http://wwwmpa.mpa-garching.mpg.de/ccsnarchive/data/Huedepohl2014_phd_thesis/, 
# Huedepohl, L. (2014), Neutrinos from the Formation, Cooling and Black Hole Collapse of Neutron Stars, PhD. Thesis, Technische Universitat Muenchen
# time (s), <energy> (MeV), alpha, luminosity (foe/s), for nu_e, nu_e_bar, nu_mu
-0.00025897 8.47117 6.34725 1.0704e+53 0 0 0 0 0 0
-0.00015897 8.48976 6.34769 1.07369e+53 2.93939 2.09093 3.04772e+45 3.45633 1.89319 2.32118e+45
-5.89695e-05 8.50862 6.34862 1.07636e+53 2.92509 2.28867 4.82071e+45 3.39765 2.15534 3.4134e+45
4.10305e-05 8.52781 6.35015 1.07845e+53 2.93321 2.4155 7.24798e+45 3.38006 2.37 4.94757e+45
0.00014103 8.54744 6.35237 1.08043e+53 2.95712 2.49066 1.04044e+46 3.38861 2.54302 7.00985e+45
0.00024103 8.56718 6.35537 1.08079e+53 2.99167 2.53126 1.43466e+46 3.41255 2.6765 9.67864e+45
0.00034103 8.58701 6.35892 1.07994e+53 3.03406 2.54638 1.88685e+46 3.44785 2.78081 1.27948e+46
0.00044103 8.60711 6.3637 1.07755e+53 3.0855 2.53294 2.45886e+46 3.41967 2.96484 2.38743e+46
0.00054103 8.62738 6.36922 1.07424e+53 3.14231 2.50255 3.10194e+46 3.35382 3.19616 3.96779e+46
0.00064103 8.64766 6.37474 1.07093e+53 3.19912 2.47216 3.74503e+46 3.28796 3.42749 5.54815e+46
0.00074103 8.66827 6.38185 1.06423e+53 3.25384 2.43639 4.48849e+46 3.30455 3.59593 5.77194e+47
0.00084103 8.68912 6.39009 1.05514e+53 3.30711 2.39683 5.30248e+46 3.37907 3.7202 1.45441e+48
0.00094103 8.70998 6.39832 1.04605e+53 3.36037 2.35727 6.11648e+46 3.45359 3.84446 2.33162e+48
0.00104103 8.73083 6.40656 1.03696e+53 3.41363 2.31772 6.93047e+46 3.52811 3.96872 3.20883e+48
0.00114103 8.75168 6.41479 1.02787e+53 3.4669 2.27816 7.74446e+46 3.60263 4.09298 4.08604e+48
0.00124103 8.77254 6.42303 1.01879e+53 3.52016 2.23861 8.55845e+46 3.67715 4.21724 4.96326e+48
0.00134103 8.7938 6.4383 9.99769e+52 3.65453 2.48139 1.34641e+48 3.807 4.24748 4.32387e+49
0.00144103 8.81509 6.45417 9.79911e+52 3.79577 2.7481 2.71341e+48 3.94153 4.26974 8.46841e+49
0.00154103 8.83639 6.47004 9.60052e+52 3.93701 3.01482 4.08042e+48 4.07606 4.29201 1.2613e+50
0.00164103 8.85768 6.48591 9.40193e+52 4.07825 3.28153 5.44742e+48 4.2106 4.31427 1.67575e+50
0.00174103 8.87898 6.50177 9.20335e+52 4.21949 3.54824 6.81443e+48 4.34513 4.33654 2.0902e+50
0.00184103 8.90028 6.51764 9.00476e+52 4.36073 3.81496 8.18143e+48 4.47966 4.3588 2.50466e+50
0.00194103 8.92157 6.53351 8.80617e+52 4.50197 4.08167 9.54844e+48 4.6142 4.38107 2.91911e+50
0.00204103 8.94287 6.54938 8.60759e+52 4.64321 4.34838 1.09154e+49 4.74873 4.40333 3.33356e+50
0.00214103 8.96416 6.56525 8.409e+52 4.78445 4.6151 1.22824e+49 4.88326 4.4256 3.74802e+50
0.00224103 8.98546 6.58112 8.21041e+52 4.92569 4.88181 1.36495e+49 5.01779 4.44786 4.16247e+50
0.00234103 8.99227 6.57361 8.15149e+52 5.06304 4.75275 1.52542e+49 5.27124 4.40529 5.98649e+50
0.00244103 8.99769 6.56384 8.10607e+52 5.20001 4.58541 1.68819e+49 5.5362 4.35645 7.94685e+50
0.00254103 9.0031 6.55407 8.06066e+52 5.33699 4.41807 1.85096e+49 5.80115 4.3076 9.90721e+50
0.00264103 9.00852 6.54429 8.01524e+52 5.47396 4.25073 2.01373e+49 6.0661 4.25876 1.18676e+51
0.00274103 9.01393 6.53452 7.96983e+52 5.61094 4.08339 2.1765e+49 6.33105 4.20991 1.38279e+51
0.00284103 9.01934 6.52475 7.92441e+52 5.74791 3.91606 2.33927e+49 6.596 4.16107 1.57883e+51
0.00294103 9.02476 6.51498 7.87899e+52 5.88488 3.74872 2.50204e+49 6.86096 4.11223 1.77486e+51
0.00304103 9.03017 6.50521 7.83358e+52 6.02186 3.58138 2.66481e+49 7.12591 4.06338 1.9709e+51
0.00314103 9.03559 6.49544 7.78816e+52 6.15883 3.41404 2.82758e+49 7.39086 4.01454 2.16694e+51
0.00324103 9.041 6.48567 7.74275e+52 6.29581 3.2467 2.99035e+49 7.65581 3.96569 2.36297e+51
0.00334103 9.14127 6.44258 8.38224e+52 6.40569 3.21098 3.26386e+49 7.84707 3.95969 2.63914e+51
0.00344103 9.25192 6.39584 9.09665e+52 6.51261 3.18965 3.54949e+49 8.03027 3.95838 2.92408e+51
0.00354103 9.36257 6.3491 9.81106e+52 6.61954 3.16833 3.83511e+49 8.21346 3.95707 3.20902e+51
0.00364103 9.47322 6.30235 1.05255e+53 6.72646 3.14701 4.12074e+49 8.39666 3.95575 3.49396e+51
0.00374103 9.58387 6.25561 1.12399e+53 6.83338 3.12568 4.40636e+49 8.57986 3.95444 3.77889e+51
0.00384103 9.69452 6.20887 1.19543e+53 6.94031 3.10436 4.69199e+49 8.76305 3.95312 4.06383e+51
0.00394103 9.80517 6.16213 1.26687e+53 7.04723 3.08304 4.97761e+49 8.94625 3.95181 4.34877e+51
0.00404103 9.91582 6.11539 1.33831e+53 7.15415 3.06171 5.26324e+49 9.12945 3.9505 4.6337e+51
0.00414103 10.0265 6.06865 1.40975e+53 7.26107 3.04039 5.54886e+49 9.31264 3.94918 4.91864e+51
0.00424103 10.1371 6.02191 1.48119e+53 7.368 3.01907 5.83448e+49 9.49584 3.94787 5.20358e+51
0.00434103 10.2772 5.98848 1.60497e+53 7.50069 3.05734 6.83764e+49 9.60413 3.9144 5.399e+51
0.00444103 10.4211 5.95678 1.73551e+53 7.63672 3.10332 7.93358e+49 9.70272 3.87677 5.58285e+51
0.00454103 10.5649 5.92508 1.86606e+53 7.77274 3.1493 9.02951e+49 9.80132 3.83913 5.7667e+51
0.00464103 10.7088 5.89337 1.9966e+53 7.90877 3.19528 1.01254e+50 9.89992 3.8015 5.95055e+51
0.00474103 10.8527 5.86167 2.12715e+53 8.0448 3.24127 1.12214e+50 9.99852 3.76387 6.1344e+51
0.00484103 10.9965 5.82996 2.25769e+53 8.18082 3.28725 1.23173e+50 10.0971 3.72624 6.31825e+51
0.00494103 11.1404 5.79826 2.38823e+53 8.31685 3.33323 1.34133e+50 10.1957 3.68861 6.5021e+51
0.00504103 11.2843 5.76656 2.51878e+53 8.45288 3.37921 1.45092e+50 10.2943 3.65098 6.68595e+51
0.00514103 11.4281 5.73485 2.64932e+53 8.5889 3.42519 1.56051e+50 10.3929 3.61335 6.8698e+51
0.00524103 11.572 5.70315 2.77987e+53 8.72493 3.47117 1.67011e+50 10.4915 3.57572 7.05365e+51
0.00534103 11.6754 5.69291 2.88768e+53 8.83581 3.51259 1.86509e+50 10.5575 3.53566 7.17664e+51
0.00544103 11.7724 5.68605 2.99191e+53 8.94272 3.55329 2.07352e+50 10.6184 3.49523 7.29004e+51
0.00554103 11.8694 5.67919 3.09614e+53 9.04964 3.59398 2.28195e+50 10.6793 3.45479 7.40344e+51
0.00564103 11.9467 5.67248 3.17495e+53 9.14101 3.62519 2.54416e+50 10.7308 3.41887 7.50625e+51
0.00574103 11.9961 5.66597 3.2177e+53 9.2103 3.64292 2.88268e+50 10.7691 3.38935 7.59403e+51
0.00584103 12.0455 5.65946 3.26044e+53 9.2796 3.66064 3.2212e+50 10.8074 3.35983 7.68181e+51
0.00594103 12.0949 5.65295 3.30319e+53 9.3489 3.67837 3.55972e+50 10.8456 3.33031 7.76959e+51
0.00604103 12.1443 5.64645 3.34593e+53 9.4182 3.6961 3.89824e+50 10.8839 3.30079 7.85738e+51
0.00614103 12.1937 5.63994 3.38868e+53 9.48749 3.71383 4.23675e+50 10.9222 3.27127 7.94516e+51
0.00624103 12.2431 5.63343 3.43142e+53 9.55679 3.73156 4.57527e+50 10.9604 3.24175 8.03294e+51
0.00634103 12.2925 5.62692 3.47417e+53 9.62609 3.74929 4.91379e+50 10.9987 3.21223 8.12073e+51
0.00644103 12.3419 5.62041 3.51691e+53 9.69538 3.76702 5.25231e+50 11.037 3.18271 8.20851e+51
0.00654103 12.3913 5.6139 3.55966e+53 9.76468 3.78475 5.59083e+50 11.0752 3.15319 8.29629e+51
0.00664103 12.4232 5.60437 3.5782e+53 9.82031 3.79533 6.01436e+50 11.108 3.13097 8.39054e+51
0.00674103 12.428 5.59012 3.55903e+53 9.85466 3.79478 6.57028e+50 11.1322 3.12012 8.49487e+51
0.00684103 12.4328 5.57587 3.53987e+53 9.88901 3.79424 7.12621e+50 11.1564 3.10926 8.5992e+51
0.00694103 12.4375 5.56162 3.52071e+53 9.92335 3.79369 7.68213e+50 11.1806 3.09841 8.70353e+51
0.00704103 12.4423 5.54738 3.50154e+53 9.9577 3.79314 8.23806e+50 11.2048 3.08755 8.80786e+51
0.00714103 12.447 5.53313 3.48238e+53 9.99204 3.7926 8.79399e+50 11.229 3.07669 8.91218e+51
0.00724103 12.4518 5.51888 3.46321e+53 10.0264 3.79205 9.34991e+50 11.2532 3.06584 9.01651e+51
0.00734103 12.4566 5.50463 3.44405e+53 10.0607 3.7915 9.90584e+50 11.2774 3.05498 9.12084e+51
0.00744103 12.4613 5.49038 3.42489e+53 10.0951 3.79095 1.04618e+51 11.3016 3.04413 9.22517e+51
0.00754103 12.4661 5.47613 3.40572e+53 10.1294 3.79041 1.10177e+51 11.3258 3.03327 9.32949e+51
0.00764103 12.4641 5.46155 3.381e+53 10.1591 3.79092 1.16588e+51 11.3506 3.02665 9.44943e+51
0.00774103 12.4503 5.44639 3.34652e+53 10.1806 3.79331 1.24495e+51 11.3765 3.02747 9.59677e+51
0.00784103 12.4364 5.43123 3.31204e+53 10.2021 3.79569 1.32402e+51 11.4024 3.02829 9.74411e+51
0.00794103 12.4226 5.41606 3.27757e+53 10.2235 3.79807 1.4031e+51 11.4283 3.02911 9.89145e+51
0.00804103 12.4088 5.4009 3.24309e+53 10.245 3.80045 1.48217e+51 11.4542 3.02993 1.00388e+52
0.00814103 12.3949 5.38574 3.20861e+53 10.2665 3.80284 1.56124e+51 11.4801 3.03075 1.01861e+52
0.00824103 12.3811 5.37058 3.17413e+53 10.288 3.80522 1.64031e+51 11.506 3.03156 1.03335e+52
0.00834103 12.3673 5.35541 3.13965e+53 10.3094 3.8076 1.71939e+51 11.5319 3.03238 1.04808e+52
0.00844103 12.3534 5.34025 3.10517e+53 10.3309 3.80998 1.79846e+51 11.5578 3.0332 1.06282e+52
0.00854103 12.3396 5.32509 3.07069e+53 10.3524 3.81237 1.87753e+51 11.5837 3.03402 1.07755e+52
0.00864103 12.3232 5.31087 3.03685e+53 10.3716 3.81653 1.96418e+51 11.6104 3.0357 1.0932e+52
0.00874103 12.3021 5.29846 3.00425e+53 10.3867 3.82411 2.06536e+51 11.6386 3.03904 1.11062e+52
0.00884103 12.2809 5.28605 2.97165e+53 10.4017 3.8317 2.16654e+51 11.6668 3.04238 1.12803e+52
0.00894103 12.2597 5.27365 2.93905e+53 10.4167 3.83928 2.26772e+51 11.695 3.04571 1.14545e+52
0.00904103 12.2386 5.26124 2.90645e+53 10.4318 3.84687 2.36891e+51 11.7232 3.04905 1.16287e+52
0.00914103 12.2174 5.24883 2.87384e+53 10.4468 3.85445 2.47009e+51 11.7514 3.05239 1.18028e+52
0.00924103 12.1962 5.23642 2.84124e+53 10.4618 3.86204 2.57127e+51 11.7796 3.05573 1.1977e+52
0.00934103 12.1751 5.22402 2.80864e+53 10.4768 3.86962 2.67245e+51 11.8078 3.05906 1.21512e+52
0.00944103 12.1539 5.21161 2.77604e+53 10.4919 3.8772 2.77364e+51 11.836 3.0624 1.23253e+52
0.00954103 12.1327 5.1992 2.74344e+53 10.5069 3.88479 2.87482e+51 11.8642 3.06574 1.24995e+52
0.00964103 12.1104 5.18805 2.71201e+53 10.5188 3.89294 2.98008e+51 11.8914 3.06918 1.26754e+52
0.00974103 12.0853 5.17962 2.68313e+53 10.5241 3.90233 3.09416e+51 11.9164 3.07285 1.28553e+52
0.00984103 12.0603 5.1712 2.65425e+53 10.5293 3.91173 3.20825e+51 11.9413 3.07652 1.30351e+52
0.00994103 12.0353 5.16277 2.62538e+53 10.5346 3.92112 3.32234e+51 11.9663 3.08019 1.3215e+52
0.010041 12.0102 5.15434 2.5965e+53 10.5399 3.93051 3.43643e+51 11.9913 3.08385 1.33948e+52
0.010141 11.9852 5.14591 2.56762e+53 10.5451 3.9399 3.55051e+51 12.0163 3.08752 1.35747e+52
0.010241 11.9601 5.13749 2.53874e+53 10.5504 3.94929 3.6646e+51 12.0412 3.09119 1.37545e+52
0.010341 11.9351 5.12906 2.50986e+53 10.5556 3.95868 3.77869e+51 12.0662 3.09486 1.39344e+52
0.010441 11.9101 5.12063 2.48098e+53 10.5609 3.96807 3.89278e+51 12.0912 3.09853 1.41142e+52
0.010541 11.885 5.1122 2.4521e+53 10.5661 3.97746 4.00686e+51 12.1161 3.1022 1.42941e+52
0.010641 11.86 5.10592 2.42488e+53 10.5708 3.98661 4.12503e+51 12.1402 3.10594 1.44763e+52
0.010741 11.8348 5.10468 2.40153e+53 10.574 3.99517 4.25272e+51 12.1621 3.10986 1.46642e+52
0.010841 11.8096 5.10343 2.37817e+53 10.5772 4.00373 4.38042e+51 12.1839 3.11377 1.4852e+52
0.010941 11.7844 5.10218 2.35482e+53 10.5803 4.01228 4.50811e+51 12.2058 3.11769 1.50399e+52
0.011041 11.7592 5.10093 2.33147e+53 10.5835 4.02084 4.63581e+51 12.2277 3.12161 1.52277e+52
0.011141 11.734 5.09968 2.30812e+53 10.5867 4.0294 4.7635e+51 12.2496 3.12552 1.54156e+52
0.011241 11.7089 5.09843 2.28476e+53 10.5899 4.03796 4.8912e+51 12.2714 3.12944 1.56034e+52
0.011341 11.6837 5.09718 2.26141e+53 10.5931 4.04652 5.01889e+51 12.2933 3.13336 1.57912e+52
0.011441 11.6585 5.09593 2.23806e+53 10.5963 4.05508 5.14659e+51 12.3152 3.13727 1.59791e+52
0.011541 11.6333 5.09468 2.2147e+53 10.5995 4.06364 5.27428e+51 12.337 3.14119 1.61669e+52
0.011641 11.6094 5.09303 2.19257e+53 10.6029 4.07182 5.40483e+51 12.3582 3.14502 1.63552e+52
0.011741 11.5889 5.09023 2.17394e+53 10.6069 4.07889 5.54355e+51 12.3771 3.14858 1.65446e+52
0.011841 11.5685 5.08743 2.15531e+53 10.611 4.08596 5.68226e+51 12.396 3.15215 1.67341e+52
0.011941 11.5481 5.08462 2.13668e+53 10.6151 4.09303 5.82098e+51 12.415 3.15572 1.69235e+52
0.012041 11.5277 5.08182 2.11805e+53 10.6191 4.1001 5.95969e+51 12.4339 3.15929 1.7113e+52
0.012141 11.5073 5.07902 2.09941e+53 10.6232 4.10717 6.09841e+51 12.4528 3.16286 1.73024e+52
0.012241 11.4869 5.07622 2.08078e+53 10.6273 4.11424 6.23712e+51 12.4718 3.16642 1.74919e+52
0.012341 11.4664 5.07341 2.06215e+53 10.6313 4.12131 6.37584e+51 12.4907 3.16999 1.76813e+52
0.012441 11.446 5.07061 2.04352e+53 10.6354 4.12838 6.51455e+51 12.5097 3.17356 1.78708e+52
0.012541 11.4256 5.06781 2.02489e+53 10.6395 4.13545 6.65327e+51 12.5286 3.17713 1.80602e+52
0.012641 11.4055 5.06479 2.00688e+53 10.644 4.14171 6.79347e+51 12.5471 3.18048 1.82479e+52
0.012741 11.3865 5.06107 1.99086e+53 10.6501 4.14539 6.93846e+51 12.5642 3.18311 1.84299e+52
0.012841 11.3675 5.05735 1.97485e+53 10.6562 4.14906 7.08345e+51 12.5812 3.18574 1.86119e+52
0.012941 11.3485 5.05363 1.95884e+53 10.6623 4.15274 7.22844e+51 12.5983 3.18837 1.87939e+52
0.013041 11.3295 5.04991 1.94283e+53 10.6684 4.15641 7.37343e+51 12.6154 3.191 1.89758e+52
0.013141 11.3105 5.04619 1.92681e+53 10.6745 4.16009 7.51841e+51 12.6325 3.19363 1.91578e+52
0.013241 11.2915 5.04247 1.9108e+53 10.6806 4.16376 7.6634e+51 12.6495 3.19626 1.93398e+52
0.013341 11.2725 5.03875 1.89479e+53 10.6867 4.16744 7.80839e+51 12.6666 3.1989 1.95218e+52
0.013441 11.2534 5.03503 1.87877e+53 10.6928 4.17111 7.95338e+51 12.6837 3.20153 1.97038e+52
0.013541 11.2344 5.03131 1.86276e+53 10.6989 4.17479 8.09837e+51 12.7007 3.20416 1.98858e+52
0.013641 11.2152 5.02735 1.8469e+53 10.7051 4.17825 8.24389e+51 12.7172 3.20669 2.00645e+52
0.013741 11.1954 5.02255 1.83159e+53 10.7113 4.18096 8.39135e+51 12.7315 3.20885 2.02314e+52
0.013841 11.1756 5.01774 1.81629e+53 10.7175 4.18367 8.5388e+51 12.7458 3.21101 2.03982e+52
0.013941 11.1558 5.01293 1.80098e+53 10.7237 4.18637 8.68626e+51 12.76 3.21317 2.05651e+52
0.014041 11.1359 5.00812 1.78567e+53 10.7299 4.18908 8.83372e+51 12.7743 3.21533 2.0732e+52
0.014141 11.1161 5.00332 1.77036e+53 10.7361 4.19178 8.98117e+51 12.7886 3.2175 2.08988e+52
0.014241 11.0963 4.99851 1.75505e+53 10.7424 4.19449 9.12863e+51 12.8029 3.21966 2.10657e+52
0.014341 11.0765 4.9937 1.73974e+53 10.7486 4.1972 9.27609e+51 12.8172 3.22182 2.12326e+52
0.014441 11.0566 4.9889 1.72444e+53 10.7548 4.1999 9.42354e+51 12.8314 3.22398 2.13994e+52
0.014541 11.0368 4.98409 1.70913e+53 10.761 4.20261 9.571e+51 12.8457 3.22614 2.15663e+52
0.014641 11.0172 4.97966 1.69431e+53 10.7671 4.20525 9.71839e+51 12.8592 3.22826 2.17283e+52
0.014741 10.9987 4.97677 1.68152e+53 10.7729 4.20761 9.86553e+51 12.8694 3.23023 2.18703e+52
0.014841 10.9802 4.97388 1.66872e+53 10.7786 4.20997 1.00127e+52 12.8797 3.2322 2.20123e+52
0.014941 10.9617 4.971 1.65593e+53 10.7844 4.21233 1.01598e+52 12.8899 3.23416 2.21542e+52
0.015041 10.9432 4.96811 1.64313e+53 10.7901 4.21469 1.03069e+52 12.9001 3.23613 2.22962e+52
0.015141 10.9247 4.96522 1.63034e+53 10.7958 4.21705 1.04541e+52 12.9103 3.2381 2.24382e+52
0.015241 10.9061 4.96234 1.61755e+53 10.8016 4.21941 1.06012e+52 12.9206 3.24006 2.25801e+52
0.015341 10.8876 4.95945 1.60475e+53 10.8073 4.22177 1.07483e+52 12.9308 3.24203 2.27221e+52
0.015441 10.8691 4.95656 1.59196e+53 10.8131 4.22413 1.08955e+52 12.941 3.244 2.2864e+52
0.015541 10.8506 4.95367 1.57917e+53 10.8188 4.22649 1.10426e+52 12.9512 3.24596 2.3006e+52
0.015641 10.8321 4.95076 1.56648e+53 10.8245 4.22892 1.11903e+52 12.9611 3.24793 2.3146e+52
0.015741 10.8141 4.94763 1.55473e+53 10.8295 4.23201 1.13425e+52 12.9675 3.2499 2.32682e+52
0.015841 10.7961 4.94451 1.54299e+53 10.8345 4.2351 1.14947e+52 12.9739 3.25187 2.33904e+52
0.015941 10.7782 4.94138 1.53125e+53 10.8395 4.23819 1.16469e+52 12.9802 3.25384 2.35125e+52
0.016041 10.7602 4.93825 1.51951e+53 10.8445 4.24127 1.17992e+52 12.9866 3.25581 2.36347e+52
0.016141 10.7422 4.93512 1.50776e+53 10.8495 4.24436 1.19514e+52 12.993 3.25778 2.37569e+52
0.016241 10.7242 4.93199 1.49602e+53 10.8546 4.24745 1.21036e+52 12.9994 3.25975 2.38791e+52
0.016341 10.7062 4.92886 1.48428e+53 10.8596 4.25053 1.22558e+52 13.0058 3.26172 2.40013e+52
0.016441 10.6882 4.92573 1.47254e+53 10.8646 4.25362 1.24081e+52 13.0122 3.26368 2.41235e+52
0.016541 10.6702 4.92261 1.46079e+53 10.8696 4.25671 1.25603e+52 13.0186 3.26565 2.42456e+52
0.016641 10.6523 4.91978 1.4492e+53 10.8747 4.25963 1.27129e+52 13.025 3.26741 2.43666e+52
0.016741 10.6354 4.92006 1.4391e+53 10.8804 4.26086 1.28702e+52 13.0317 3.26704 2.44753e+52
0.016841 10.6185 4.92034 1.429e+53 10.8861 4.2621 1.30274e+52 13.0385 3.26666 2.4584e+52
0.016941 10.6017 4.92062 1.4189e+53 10.8918 4.26334 1.31847e+52 13.0452 3.26628 2.46927e+52
0.017041 10.5848 4.9209 1.4088e+53 10.8976 4.26457 1.33419e+52 13.052 3.26591 2.48014e+52
0.017141 10.5679 4.92117 1.3987e+53 10.9033 4.26581 1.34991e+52 13.0587 3.26553 2.49101e+52
0.017241 10.5511 4.92145 1.3886e+53 10.909 4.26704 1.36564e+52 13.0655 3.26515 2.50188e+52
0.017341 10.5342 4.92173 1.3785e+53 10.9148 4.26828 1.38136e+52 13.0723 3.26477 2.51275e+52
0.017441 10.5173 4.92201 1.3684e+53 10.9205 4.26951 1.39708e+52 13.079 3.2644 2.52362e+52
0.017541 10.5005 4.92229 1.3583e+53 10.9262 4.27075 1.41281e+52 13.0858 3.26402 2.53449e+52
0.017641 10.4836 4.92279 1.34823e+53 10.9321 4.27188 1.42862e+52 13.0926 3.2637 2.54534e+52
0.017741 10.4665 4.92581 1.33849e+53 10.9403 4.27193 1.44541e+52 13.0999 3.26408 2.55594e+52
0.017841 10.4493 4.92882 1.32876e+53 10.9485 4.27198 1.4622e+52 13.1072 3.26446 2.56655e+52
0.017941 10.4322 4.93184 1.31902e+53 10.9568 4.27203 1.47899e+52 13.1145 3.26484 2.57716e+52
0.018041 10.4151 4.93485 1.30929e+53 10.965 4.27208 1.49577e+52 13.1218 3.26521 2.58776e+52
0.018141 10.398 4.93786 1.29955e+53 10.9732 4.27213 1.51256e+52 13.1291 3.26559 2.59837e+52
0.018241 10.3809 4.94088 1.28982e+53 10.9814 4.27218 1.52935e+52 13.1364 3.26597 2.60898e+52
0.018341 10.3637 4.94389 1.28008e+53 10.9896 4.27223 1.54614e+52 13.1437 3.26634 2.61958e+52
0.018441 10.3466 4.9469 1.27035e+53 10.9978 4.27228 1.56293e+52 13.151 3.26672 2.63019e+52
0.018541 10.3295 4.94992 1.26061e+53 11.006 4.27233 1.57972e+52 13.1583 3.2671 2.6408e+52
0.018641 10.3127 4.95243 1.25101e+53 11.0141 4.27242 1.59649e+52 13.1654 3.26754 2.65136e+52
0.018741 10.3043 4.94336 1.24456e+53 11.0206 4.27358 1.61289e+52 13.1692 3.26948 2.66084e+52
0.018841 10.2959 4.93429 1.23811e+53 11.027 4.27473 1.62929e+52 13.1729 3.27142 2.67033e+52
0.018941 10.2875 4.92523 1.23165e+53 11.0335 4.27589 1.64569e+52 13.1766 3.27337 2.67982e+52
0.019041 10.279 4.91616 1.2252e+53 11.0399 4.27704 1.66209e+52 13.1804 3.27531 2.68931e+52
0.019141 10.2706 4.9071 1.21875e+53 11.0463 4.2782 1.6785e+52 13.1841 3.27725 2.6988e+52
0.019241 10.2622 4.89803 1.21229e+53 11.0528 4.27935 1.6949e+52 13.1879 3.27919 2.70829e+52
0.019341 10.2537 4.88896 1.20584e+53 11.0592 4.28051 1.7113e+52 13.1916 3.28114 2.71778e+52
0.019441 10.2453 4.8799 1.19939e+53 11.0657 4.28166 1.7277e+52 13.1953 3.28308 2.72727e+52
0.019541 10.2369 4.87083 1.19293e+53 11.0721 4.28282 1.7441e+52 13.1991 3.28502 2.73676e+52
0.019641 10.2285 4.86177 1.18648e+53 11.0786 4.28397 1.7605e+52 13.2028 3.28696 2.74624e+52
0.019741 10.219 4.86131 1.18101e+53 11.0857 4.2846 1.77711e+52 13.2091 3.28584 2.75518e+52
0.019841 10.2094 4.86125 1.17559e+53 11.0928 4.28521 1.79373e+52 13.2154 3.28459 2.76409e+52
0.019941 10.1998 4.86119 1.17017e+53 11.1 4.28582 1.81035e+52 13.2218 3.28333 2.773e+52
0.020041 10.1903 4.86113 1.16475e+53 11.1072 4.28643 1.82697e+52 13.2282 3.28207 2.78192e+52
0.020141 10.1807 4.86107 1.15933e+53 11.1143 4.28704 1.84359e+52 13.2345 3.28081 2.79083e+52
0.020241 10.1712 4.86101 1.15391e+53 11.1215 4.28765 1.86021e+52 13.2409 3.27955 2.79974e+52
0.020341 10.1616 4.86095 1.14848e+53 11.1286 4.28825 1.87683e+52 13.2472 3.27829 2.80865e+52
0.020441 10.1521 4.86089 1.14306e+53 11.1358 4.28886 1.89345e+52 13.2536 3.27703 2.81756e+52
0.020541 10.1425 4.86083 1.13764e+53 11.1429 4.28947 1.91007e+52 13.26 3.27577 2.82648e+52
0.020641 10.133 4.86077 1.13222e+53 11.1501 4.29008 1.92669e+52 13.2663 3.27452 2.83539e+52
0.020741 10.1195 4.86255 1.1255e+53 11.1558 4.28901 1.943e+52 13.2692 3.27435 2.84345e+52
