# If you use this flux, cite http://wwwmpa.mpa-garching.mpg.de/ccsnarchive/data/Huedepohl2014_phd_thesis/, 
# Huedepohl, L. (2014), Neutrinos from the Formation, Cooling and Black Hole Collapse of Neutron Stars, PhD. Thesis, Technische Universitat Muenchen
# time (s), <energy> (MeV), alpha, luminosity (foe/s), for nu_e, nu_e_bar, nu_mu
-0.000475113 8.4233 6.27114 9.70628e+52 0 0 0 0 0 0
-0.000375113 8.44327 6.26411 9.75179e+52 3.1047 0.884394 1.05197e+45 4.12934 0.913239 1.03154e+45
-0.000275113 8.46368 6.25786 9.79126e+52 2.87217 1.30302 1.45521e+45 3.61524 1.07547 1.26996e+45
-0.000175113 8.48451 6.2524 9.82398e+52 2.80087 1.62025 2.20103e+45 3.41401 1.31993 1.71368e+45
-7.51133e-05 8.50575 6.24763 9.8495e+52 2.78161 1.86508 3.31409e+45 3.3184 1.58065 2.39887e+45
2.48867e-05 8.52801 6.2435 9.88595e+52 2.7901 2.05359 4.89201e+45 3.27747 1.84077 3.42073e+45
0.000124887 8.55033 6.23991 9.89581e+52 2.81493 2.1877 6.94288e+45 3.27123 2.07967 4.79192e+45
0.000224887 8.57247 6.23668 9.8948e+52 2.85094 2.27261 9.51886e+45 3.28879 2.28519 6.5772e+45
0.000324887 8.59484 6.23433 9.88286e+52 2.8941 2.31735 1.26525e+46 3.3208 2.44557 8.84482e+45
0.000424887 8.6176 6.23338 9.86045e+52 2.94177 2.33284 1.63001e+46 3.36195 2.56065 1.15864e+46
0.000524887 8.64085 6.23433 9.82749e+52 2.99157 2.32955 2.03478e+46 3.39457 2.66097 1.52404e+46
0.000624887 8.66461 6.23736 9.78365e+52 3.0408 2.31622 2.46273e+46 3.32832 3.49201 3.24378e+46
0.000724887 8.68886 6.24239 9.72777e+52 3.08764 2.29704 2.90112e+46 3.35755 4.22988 9.07649e+46
0.000824887 8.71346 6.24902 9.65908e+52 3.13166 2.27391 3.34298e+46 3.47569 4.41594 2.2845e+47
0.000924887 8.73836 6.2569 9.57647e+52 3.17299 2.24835 3.78684e+46 3.5317 4.381 5.22173e+47
0.00102489 8.76351 6.26564 9.47927e+52 3.21175 2.22287 4.23353e+46 3.61548 4.3421 1.14188e+48
0.00112489 8.78886 6.27495 9.36889e+52 3.24808 2.19955 4.68278e+46 3.71261 4.36375 2.29219e+48
0.00122489 8.81439 6.28491 9.24282e+52 3.30908 2.21447 5.29313e+46 3.79324 4.42986 4.69176e+48
0.00132489 8.84005 6.29557 9.10201e+52 3.59527 2.6135 7.65825e+46 3.87075 4.51495 9.22517e+48
0.00142489 8.86578 6.3069 8.94714e+52 4.06398 3.58961 1.41718e+47 3.93997 4.58541 1.70305e+49
0.00152489 8.89165 6.31905 8.77664e+52 4.32815 4.6199 2.81761e+47 4.00563 4.694 3.03153e+49
0.00162489 8.91786 6.3325 8.59031e+52 4.44371 5.07469 5.55476e+47 4.07937 4.80653 5.17307e+49
0.00172489 8.94482 6.34863 8.38783e+52 4.48212 5.16512 1.07297e+48 4.17951 4.89747 8.37266e+49
0.00182489 8.97284 6.36881 8.17247e+52 4.51766 5.14883 1.99507e+48 4.29989 4.9102 1.24881e+50
0.00192489 9.00167 6.39248 7.94758e+52 4.56951 5.12314 3.34466e+48 4.43781 4.8605 1.73326e+50
0.00202489 9.03084 6.41849 7.71559e+52 4.65022 5.11271 5.09599e+48 4.59259 4.76133 2.28564e+50
0.00212489 9.05916 6.44372 7.47971e+52 4.77543 5.05708 7.13559e+48 4.76644 4.63272 2.91868e+50
0.00222489 9.08321 6.45954 7.24988e+52 4.92302 4.93848 9.0644e+48 4.959 4.50409 3.65237e+50
0.00232489 9.10389 6.46838 7.02733e+52 5.07935 4.7881 1.08958e+49 5.16375 4.37435 4.45195e+50
0.00242489 9.11607 6.46026 6.82706e+52 5.24387 4.58533 1.24658e+49 5.39527 4.24017 5.39689e+50
0.00252489 9.12078 6.44123 6.65956e+52 5.40705 4.37785 1.39075e+49 5.64775 4.11321 6.49429e+50
0.00262489 9.12068 6.41568 6.51635e+52 5.56887 4.16864 1.52699e+49 5.91385 3.9926 7.70073e+50
0.00272489 9.11416 6.38772 6.44526e+52 5.72281 3.97329 1.65684e+49 6.19964 3.90163 9.1875e+50
0.00282489 9.10958 6.36571 6.42508e+52 5.87086 3.79377 1.78675e+49 6.49066 3.82914 1.08369e+51
0.00292489 9.10692 6.34958 6.45524e+52 6.0131 3.62991 1.91674e+49 6.78683 3.7749 1.26472e+51
0.00302489 9.12031 6.34683 6.60041e+52 6.14446 3.49908 2.05103e+49 7.07736 3.75366 1.47538e+51
0.00312489 9.147 6.34519 6.81299e+52 6.27118 3.3838 2.18982e+49 7.36196 3.74042 1.6993e+51
0.00322489 9.19424 6.34392 7.12587e+52 6.39134 3.29095 2.3357e+49 7.63724 3.73696 1.94216e+51
0.00332489 9.26101 6.33183 7.52624e+52 6.50819 3.21257 2.4912e+49 7.9022 3.73726 2.19572e+51
0.00342489 9.35252 6.30603 8.03734e+52 6.62085 3.15251 2.65887e+49 8.15409 3.74231 2.46282e+51
0.00352489 9.46635 6.26679 8.66542e+52 6.73213 3.10623 2.8453e+49 8.39278 3.74446 2.73727e+51
0.00362489 9.59836 6.21662 9.38877e+52 6.84229 3.07117 3.04702e+49 8.62072 3.74424 3.01772e+51
0.00372489 9.75013 6.15928 1.02539e+53 6.95389 3.04939 3.28191e+49 8.83352 3.73767 3.30002e+51
0.00382489 9.91203 6.09825 1.11917e+53 7.06621 3.03443 3.53382e+49 9.03854 3.72783 3.58326e+51
0.00392489 10.0876 6.03588 1.22841e+53 7.18294 3.03237 3.84003e+49 9.22721 3.71024 3.86136e+51
0.00402489 10.2672 5.97312 1.34224e+53 7.30097 3.03415 4.16238e+49 9.41101 3.69034 4.13792e+51
0.00412489 10.452 5.91762 1.47083e+53 7.4254 3.04815 4.56723e+49 9.57792 3.66243 4.40183e+51
0.00422489 10.6374 5.86311 1.60141e+53 7.55069 3.06381 4.98327e+49 9.74254 3.63345 4.66402e+51
0.00432489 10.8188 5.82116 1.74472e+53 7.68261 3.09176 5.53608e+49 9.88765 3.5964 4.90384e+51
0.00442489 11.0001 5.77933 1.88815e+53 7.8146 3.11982 6.09023e+49 10.0326 3.55927 5.14345e+51
0.00452489 11.1733 5.74532 2.03441e+53 7.94783 3.15355 6.76097e+49 10.1656 3.51832 5.36558e+51
0.00462489 11.3406 5.71688 2.1827e+53 8.08196 3.19131 7.51485e+49 10.2903 3.47465 5.57524e+51
0.00472489 11.5068 5.6889 2.33058e+53 8.2158 3.22932 8.28356e+49 10.4138 3.43078 5.78305e+51
0.00482489 11.654 5.66818 2.47209e+53 8.34519 3.27135 9.28776e+49 10.5202 3.38385 5.96156e+51
0.00492489 11.8012 5.64746 2.61359e+53 8.47458 3.31339 1.0292e+50 10.6265 3.33693 6.14006e+51
0.00502489 11.9366 5.63038 2.7463e+53 8.59795 3.35477 1.14521e+50 10.7241 3.28988 6.30378e+51
0.00512489 12.0619 5.61646 2.87136e+53 8.7161 3.39557 1.27478e+50 10.8141 3.24274 6.45466e+51
0.00522489 12.187 5.60261 2.99618e+53 8.83409 3.43632 1.4047e+50 10.904 3.19562 6.60531e+51
0.00532489 12.2909 5.59404 3.09846e+53 8.93823 3.47236 1.5676e+50 10.98 3.15048 6.73402e+51
0.00542489 12.3948 5.58548 3.20075e+53 9.04236 3.50841 1.73051e+50 11.056 3.10534 6.86273e+51
0.00552489 12.4889 5.57805 3.2906e+53 9.13991 3.54153 1.91167e+50 11.1264 3.06185 6.98381e+51
0.00562489 12.5725 5.57183 3.36729e+53 9.23047 3.57158 2.11214e+50 11.1908 3.02012 7.09682e+51
0.00572489 12.6562 5.5656 3.44399e+53 9.32104 3.60162 2.3126e+50 11.2553 2.97838 7.20983e+51
0.00582489 12.7218 5.55952 3.49577e+53 9.39732 3.62428 2.55013e+50 11.3109 2.94062 7.31337e+51
0.00592489 12.7867 5.55344 3.54655e+53 9.47303 3.64664 2.78915e+50 11.3662 2.90303 7.41653e+51
0.00602489 12.8442 5.54696 3.58728e+53 9.54325 3.66569 3.04589e+50 11.4185 2.86752 7.51816e+51
0.00612489 12.8922 5.53997 3.61506e+53 9.6064 3.68047 3.32549e+50 11.467 2.83469 7.61782e+51
0.00622489 12.9403 5.53298 3.64284e+53 9.66956 3.69524 3.60509e+50 11.5155 2.80186 7.71748e+51
0.00632489 12.9751 5.52455 3.65293e+53 9.72253 3.70456 3.92226e+50 11.5594 2.77351 7.81826e+51
0.00642489 13.0087 5.51598 3.66132e+53 9.77453 3.71335 4.24303e+50 11.603 2.7456 7.91915e+51
0.00652489 13.0373 5.50668 3.66345e+53 9.82348 3.71978 4.58147e+50 11.6449 2.71938 8.02127e+51
0.00662489 13.0581 5.49626 3.6557e+53 9.86762 3.72247 4.94776e+50 11.6844 2.69585 8.12535e+51
0.00672489 13.0789 5.48583 3.64795e+53 9.91176 3.72516 5.31405e+50 11.724 2.67232 8.22943e+51
0.00682489 13.09 5.4731 3.62862e+53 9.94892 3.72447 5.71839e+50 11.7605 2.6525 8.33807e+51
0.00692489 13.0997 5.46 3.60745e+53 9.98499 3.72324 6.12873e+50 11.7966 2.63327 8.44743e+51
0.00702489 13.1061 5.44618 3.58329e+53 10.0201 3.72183 6.55652e+50 11.8317 2.61541 8.55857e+51
0.00712489 13.1064 5.43097 3.55328e+53 10.0535 3.72003 7.0183e+50 11.8645 2.60024 8.67315e+51
0.00722489 13.1067 5.41575 3.52327e+53 10.0869 3.71824 7.48008e+50 11.8974 2.58506 8.78773e+51
0.00732489 13.1001 5.39698 3.48575e+53 10.1182 3.71664 7.9794e+50 11.9276 2.57303 8.9033e+51
0.00742489 13.092 5.37744 3.4466e+53 10.1491 3.71509 8.4868e+50 11.9573 2.56167 9.01908e+51
0.00752489 13.0819 5.35774 3.40589e+53 10.1782 3.71396 9.00539e+50 11.9854 2.55133 9.13398e+51
0.00762489 13.0671 5.33768 3.36157e+53 10.2029 3.71379 9.5495e+50 12.0103 2.54329 9.24687e+51
0.00772489 13.0523 5.31762 3.31725e+53 10.2277 3.71362 1.00936e+51 12.0352 2.53525 9.35976e+51
0.00782489 13.0333 5.29603 3.26938e+53 10.2491 3.71354 1.06636e+51 12.0568 2.53035 9.47402e+51
0.00792489 13.0132 5.27402 3.22055e+53 10.2697 3.71348 1.12406e+51 12.0774 2.5263 9.58865e+51
0.00802489 12.9916 5.25126 3.17142e+53 10.2893 3.71427 1.18288e+51 12.0973 2.52339 9.70562e+51
0.00812489 12.9663 5.22658 3.12155e+53 10.3063 3.71728 1.24456e+51 12.1155 2.52342 9.82863e+51
0.00822489 12.9409 5.20191 3.07167e+53 10.3234 3.72029 1.30624e+51 12.1337 2.52346 9.95163e+51
0.00832489 12.9123 5.17659 3.02197e+53 10.3413 3.72416 1.37231e+51 12.1514 2.52596 1.00815e+52
0.00842489 12.8825 5.15106 2.97234e+53 10.3596 3.72832 1.43978e+51 12.169 2.52923 1.02136e+52
0.00852489 12.8527 5.12632 2.92378e+53 10.3784 3.73245 1.50869e+51 12.1868 2.53294 1.03473e+52
0.00862489 12.8225 5.10407 2.87865e+53 10.3987 3.73649 1.58214e+51 12.2052 2.53804 1.04864e+52
0.00872489 12.7924 5.08181 2.83351e+53 10.4191 3.74054 1.65559e+51 12.2237 2.54314 1.06254e+52
0.00882489 12.7617 5.06051 2.78993e+53 10.4414 3.74356 1.73393e+51 12.2427 2.54892 1.07677e+52
0.00892489 12.7308 5.03958 2.74695e+53 10.4645 3.74619 1.81412e+51 12.262 2.55495 1.09112e+52
0.00902489 12.6998 5.01927 2.70469e+53 10.4871 3.7492 1.89535e+51 12.2813 2.56104 1.10551e+52
0.00912489 12.6684 5.00134 2.66518e+53 10.5081 3.75365 1.9805e+51 12.3007 2.56739 1.12005e+52
0.00922489 12.6371 4.98341 2.62568e+53 10.529 3.75811 2.06565e+51 12.3201 2.57373 1.13459e+52
0.00932489 12.6041 4.9658 2.58688e+53 10.5474 3.76368 2.15347e+51 12.3396 2.57973 1.14896e+52
0.00942489 12.5704 4.94836 2.54843e+53 10.5645 3.76979 2.24257e+51 12.3591 2.58556 1.16325e+52
0.00952489 12.5367 4.93124 2.51039e+53 10.5817 3.77581 2.33229e+51 12.3786 2.59136 1.17751e+52
0.00962489 12.5035 4.91656 2.4755e+53 10.5996 3.78114 2.4266e+51 12.3982 2.5969 1.1915e+52
0.00972489 12.4703 4.90188 2.4406e+53 10.6175 3.78648 2.52092e+51 12.4179 2.60244 1.2055e+52
0.00982489 12.4367 4.88822 2.40672e+53 10.6347 3.79241 2.61748e+51 12.4368 2.60779 1.21919e+52
0.00992489 12.403 4.87536 2.37363e+53 10.6512 3.79881 2.71581e+51 12.4553 2.61298 1.23264e+52
0.0100249 12.3692 4.86251 2.34054e+53 10.6677 3.80521 2.81414e+51 12.4738 2.61817 1.24609e+52
0.0101249 12.3352 4.85109 2.30893e+53 10.6819 3.81127 2.91617e+51 12.491 2.62314 1.25914e+52
0.0102249 12.3013 4.83967 2.27733e+53 10.6961 3.81734 3.0182e+51 12.5082 2.6281 1.27219e+52
0.0103249 12.2665 4.82893 2.24606e+53 10.7083 3.82413 3.12144e+51 12.5246 2.63305 1.28518e+52
0.0104249 12.2307 4.81903 2.21521e+53 10.718 3.83181 3.22617e+51 12.54 2.63797 1.29811e+52
0.0105249 12.1949 4.80913 2.18436e+53 10.7277 3.83949 3.3309e+51 12.5554 2.64289 1.31103e+52
0.0106249 12.1596 4.80145 2.15574e+53 10.7342 3.84955 3.43979e+51 12.5694 2.64768 1.32406e+52
0.0107249 12.1245 4.79406 2.1274e+53 10.7403 3.8599 3.54921e+51 12.5833 2.65245 1.33711e+52
0.0108249 12.0896 4.78664 2.09907e+53 10.7474 3.86969 3.66166e+51 12.5976 2.65735 1.35037e+52
0.0109249 12.0551 4.77916 2.07074e+53 10.7565 3.87834 3.78024e+51 12.6126 2.6625 1.36408e+52
0.0110249 12.0206 4.77168 2.04241e+53 10.7657 3.88698 3.89883e+51 12.6276 2.66764 1.37778e+52
0.0111249 11.9866 4.76542 2.01602e+53 10.7768 3.89362 4.02362e+51 12.6421 2.67274 1.39149e+52
0.0112249 11.9526 4.75952 1.99019e+53 10.7885 3.89967 4.15024e+51 12.6564 2.67783 1.40521e+52
0.0113249 11.9198 4.75473 1.96543e+53 10.8003 3.906 4.27832e+51 12.6708 2.68304 1.41905e+52
0.0114249 11.8908 4.75312 1.94376e+53 10.8127 3.91313 4.4106e+51 12.6855 2.68857 1.43325e+52
0.0115249 11.8617 4.75151 1.92208e+53 10.825 3.92026 4.54289e+51 12.7003 2.6941 1.44745e+52
0.0116249 11.8336 4.75074 1.90071e+53 10.8364 3.9291 4.67762e+51 12.7156 2.69977 1.46215e+52
0.0117249 11.8058 4.75027 1.87946e+53 10.8473 3.93856 4.81324e+51 12.7311 2.7055 1.47703e+52
0.0118249 11.7781 4.74938 1.85839e+53 10.8577 3.94813 4.9492e+51 12.7462 2.71109 1.49188e+52
0.0119249 11.7501 4.74689 1.83806e+53 10.8662 3.95812 5.08642e+51 12.76 2.7162 1.50664e+52
0.0120249 11.722 4.74441 1.81772e+53 10.8747 3.96811 5.22364e+51 12.7738 2.72132 1.52139e+52
0.0121249 11.6958 4.73976 1.79929e+53 10.8838 3.97667 5.36346e+51 12.7876 2.72643 1.53626e+52
0.0122249 11.6705 4.73399 1.78185e+53 10.8931 3.98449 5.50462e+51 12.8014 2.73154 1.55118e+52
0.0123249 11.6436 4.72205 1.76454e+53 10.9029 3.99179 5.64649e+51 12.8155 2.7367 1.56621e+52
0.0124249 11.6063 4.67151 1.74808e+53 10.9152 3.99584 5.79283e+51 12.8312 2.74213 1.58189e+52
0.0125249 11.5691 4.62097 1.73162e+53 10.9275 3.99989 5.93916e+51 12.8469 2.74756 1.59757e+52
0.0126249 11.5368 4.59196 1.71415e+53 10.9386 4.00265 6.08426e+51 12.8619 2.75264 1.61322e+52
0.0127249 11.5073 4.57542 1.6961e+53 10.9491 4.00467 6.22864e+51 12.8766 2.75751 1.62885e+52
0.0128249 11.4784 4.56026 1.67817e+53 10.9593 4.00679 6.3727e+51 12.8912 2.76233 1.64442e+52
0.0129249 11.4558 4.56196 1.66175e+53 10.9663 4.0101 6.5128e+51 12.9037 2.76658 1.6593e+52
0.0130249 11.4331 4.56366 1.64533e+53 10.9733 4.01341 6.6529e+51 12.9161 2.77084 1.67418e+52
0.0131249 11.4131 4.56465 1.63076e+53 10.9803 4.01832 6.79332e+51 12.9291 2.7753 1.68913e+52
0.0132249 11.3955 4.56499 1.61788e+53 10.9875 4.02471 6.93402e+51 12.9426 2.77995 1.70415e+52
0.0133249 11.3779 4.56533 1.605e+53 10.9946 4.03111 7.07472e+51 12.956 2.78461 1.71918e+52
0.0134249 11.3579 4.56157 1.59104e+53 11.0017 4.03824 7.21447e+51 12.9702 2.78934 1.73434e+52
0.0135249 11.3379 4.55766 1.57703e+53 11.0088 4.0454 7.35419e+51 12.9844 2.79407 1.74951e+52
0.0136249 11.3154 4.55204 1.56196e+53 11.015 4.05163 7.49212e+51 12.9974 2.79845 1.76419e+52
0.0137249 11.2894 4.54396 1.54536e+53 11.02 4.05654 7.62746e+51 13.0087 2.80232 1.77818e+52
0.0138249 11.2633 4.53587 1.52876e+53 11.0249 4.06146 7.76281e+51 13.0199 2.80619 1.79218e+52
0.0139249 11.2401 4.52774 1.51428e+53 11.0293 4.06603 7.89651e+51 13.0298 2.80972 1.80531e+52
0.0140249 11.2172 4.51959 1.50016e+53 11.0337 4.07055 8.02993e+51 13.0394 2.81318 1.8183e+52
0.0141249 11.1956 4.51251 1.48649e+53 11.0381 4.07568 8.16273e+51 13.0495 2.81674 1.83133e+52
0.0142249 11.1773 4.50834 1.47404e+53 11.0425 4.08243 8.29382e+51 13.0607 2.82056 1.84445e+52
0.0143249 11.159 4.50417 1.46159e+53 11.047 4.08919 8.42491e+51 13.072 2.82438 1.85758e+52
0.0144249 11.1382 4.50124 1.44789e+53 11.0501 4.09606 8.55125e+51 13.0822 2.82818 1.87026e+52
0.0145249 11.1162 4.49889 1.43362e+53 11.0525 4.103 8.67538e+51 13.092 2.83197 1.88273e+52
0.0146249 11.094 4.49596 1.41944e+53 11.0549 4.10974 8.79921e+51 13.1015 2.83574 1.89506e+52
0.0147249 11.0691 4.48757 1.40627e+53 11.057 4.11462 8.92014e+51 13.1082 2.8393 1.90599e+52
0.0148249 11.0443 4.47918 1.39309e+53 11.059 4.11951 9.04108e+51 13.1148 2.84286 1.91693e+52
0.0149249 11.0207 4.46928 1.38103e+53 11.062 4.12387 9.16402e+51 13.1215 2.84653 1.92767e+52
0.0150249 10.9984 4.4579 1.37006e+53 11.0661 4.12772 9.28892e+51 13.1281 2.85029 1.93821e+52
0.0151249 10.9761 4.44652 1.35908e+53 11.0702 4.13158 9.41381e+51 13.1347 2.85405 1.94875e+52
0.0152249 10.9558 4.44532 1.34696e+53 11.0745 4.13394 9.54115e+51 13.1408 2.85744 1.95908e+52
0.0153249 10.9357 4.44498 1.33473e+53 11.0787 4.13617 9.6687e+51 13.1469 2.8608 1.96939e+52
0.0154249 10.9145 4.44296 1.32212e+53 11.0828 4.13765 9.79618e+51 13.1524 2.86369 1.97927e+52
0.0155249 10.8911 4.43755 1.30872e+53 11.0864 4.13762 9.92352e+51 13.1567 2.86566 1.98826e+52
0.0156249 10.8678 4.43214 1.29533e+53 11.0901 4.13759 1.00509e+52 13.161 2.86762 1.99726e+52
0.0157249 10.8457 4.42551 1.28309e+53 11.0944 4.13889 1.01802e+52 13.1656 2.86998 2.00586e+52
0.0158249 10.824 4.41847 1.27124e+53 11.0988 4.14063 1.03102e+52 13.1702 2.87246 2.01433e+52
0.0159249 10.8029 4.41231 1.25966e+53 11.1034 4.14286 1.04407e+52 13.1751 2.87516 2.0229e+52
0.0160249 10.785 4.41087 1.24946e+53 11.1086 4.14762 1.05744e+52 13.1816 2.87903 2.03208e+52
0.0161249 10.7671 4.40943 1.23926e+53 11.1138 4.15238 1.0708e+52 13.1881 2.8829 2.04125e+52
0.0162249 10.7492 4.4109 1.22888e+53 11.1181 4.15747 1.08402e+52 13.194 2.88674 2.05016e+52
0.0163249 10.7313 4.41456 1.21837e+53 11.1217 4.1628 1.09712e+52 13.1993 2.89055 2.05888e+52
0.0164249 10.7134 4.41822 1.20786e+53 11.1252 4.16814 1.11023e+52 13.2046 2.89436 2.06761e+52
0.0165249 10.6941 4.42429 1.19677e+53 11.1273 4.17163 1.12286e+52 13.2065 2.89737 2.07477e+52
0.0166249 10.6747 4.43038 1.18567e+53 11.1293 4.17509 1.13549e+52 13.2084 2.90036 2.08191e+52
0.0167249 10.6563 4.4369 1.17511e+53 11.1319 4.17845 1.14832e+52 13.2103 2.90334 2.08902e+52
0.0168249 10.6393 4.44405 1.16537e+53 11.1352 4.18164 1.16148e+52 13.2124 2.90627 2.09609e+52
0.0169249 10.6224 4.4512 1.15562e+53 11.1385 4.18482 1.17463e+52 13.2144 2.90921 2.10316e+52
0.0170249 10.609 4.45713 1.14743e+53 11.1436 4.18957 1.18873e+52 13.2185 2.91249 2.11108e+52
0.0171249 10.5965 4.46278 1.1396e+53 11.1491 4.19467 1.20304e+52 13.223 2.91587 2.11918e+52
0.0172249 10.5836 4.46752 1.13157e+53 11.1547 4.19976 1.21746e+52 13.2276 2.91922 2.12738e+52
0.0173249 10.5695 4.46909 1.12286e+53 11.1604 4.20479 1.23225e+52 13.2324 2.9225 2.1359e+52
0.0174249 10.5554 4.47065 1.11414e+53 11.1662 4.20981 1.24704e+52 13.2372 2.92578 2.14441e+52
0.0175249 10.5378 4.4705 1.10434e+53 11.1711 4.21322 1.26164e+52 13.2404 2.92881 2.15247e+52
0.0176249 10.5181 4.46935 1.09391e+53 11.1755 4.21571 1.27613e+52 13.2427 2.9317 2.16025e+52
0.0177249 10.4985 4.46825 1.08354e+53 11.1799 4.21815 1.29064e+52 13.245 2.93458 2.16802e+52
0.0178249 10.4796 4.46803 1.07426e+53 11.1857 4.21961 1.30542e+52 13.2472 2.93733 2.17551e+52
0.0179249 10.4608 4.46781 1.06499e+53 11.1914 4.22107 1.3202e+52 13.2494 2.94009 2.183e+52
0.0180249 10.4443 4.46825 1.05676e+53 11.1982 4.22218 1.33522e+52 13.2525 2.94268 2.19064e+52
0.0181249 10.4306 4.46947 1.04976e+53 11.2062 4.22287 1.35052e+52 13.2565 2.94509 2.19844e+52
0.0182249 10.4169 4.47068 1.04276e+53 11.2143 4.22356 1.36582e+52 13.2605 2.94749 2.20624e+52
0.0183249 10.4067 4.47283 1.0368e+53 11.2229 4.22342 1.38085e+52 13.2658 2.94963 2.21432e+52
0.0184249 10.3971 4.47512 1.031e+53 11.2315 4.22316 1.39585e+52 13.2713 2.95174 2.22245e+52
0.0185249 10.3872 4.47716 1.02503e+53 11.2397 4.2226 1.41065e+52 13.2765 2.95388 2.23055e+52
0.0186249 10.377 4.47857 1.01865e+53 11.2467 4.22128 1.42496e+52 13.2811 2.95614 2.23861e+52
0.0187249 10.3667 4.47997 1.01228e+53 11.2538 4.21996 1.43926e+52 13.2856 2.9584 2.24666e+52
0.0188249 10.3544 4.47928 1.00528e+53 11.26 4.21714 1.45344e+52 13.2881 2.96074 2.25414e+52
0.0189249 10.3411 4.47767 9.98017e+52 11.266 4.21367 1.46756e+52 13.2897 2.96312 2.26137e+52
0.0190249 10.3278 4.47575 9.90768e+52 11.272 4.21039 1.48174e+52 13.2912 2.96545 2.26854e+52
0.0191249 10.3139 4.47192 9.83626e+52 11.2786 4.20827 1.49623e+52 13.2924 2.9675 2.27543e+52
0.0192249 10.3 4.46808 9.76484e+52 11.2853 4.20615 1.51072e+52 13.2937 2.96955 2.28231e+52
0.0193249 10.2866 4.4644 9.69725e+52 11.2923 4.20583 1.52532e+52 13.2963 2.97119 2.28938e+52
0.0194249 10.2737 4.46084 9.63288e+52 11.2996 4.20704 1.54e+52 13.3 2.97248 2.2966e+52
0.0195249 10.2608 4.45722 9.56886e+52 11.3069 4.20827 1.55466e+52 13.3037 2.97376 2.30383e+52
0.0196249 10.2487 4.45161 9.51449e+52 11.3145 4.20979 1.56884e+52 13.3095 2.97452 2.31134e+52
0.0197249 10.2366 4.446 9.46012e+52 11.322 4.21131 1.58302e+52 13.3152 2.97528 2.31885e+52
0.0198249 10.2255 4.44232 9.40805e+52 11.3291 4.21229 1.59674e+52 13.321 2.97632 2.32645e+52
0.0199249 10.2156 4.44068 9.35844e+52 11.3357 4.21269 1.60995e+52 13.3268 2.97764 2.33415e+52
0.0200249 10.2057 4.43905 9.30883e+52 11.3423 4.21309 1.62317e+52 13.3326 2.97896 2.34184e+52
0.0201249 10.1947 4.43726 9.25672e+52 11.3472 4.21154 1.63562e+52 13.3355 2.9814 2.34887e+52
0.0202249 10.1837 4.43546 9.20452e+52 11.3521 4.20992 1.64805e+52 13.3383 2.98387 2.35587e+52
0.0203249 10.1725 4.43278 9.15338e+52 11.3572 4.20708 1.66049e+52 13.34 2.98627 2.36227e+52
0.0204249 10.1612 4.42899 9.10361e+52 11.3626 4.2027 1.67293e+52 13.3403 2.98859 2.36788e+52
