# If you use this flux, cite http://wwwmpa.mpa-garching.mpg.de/ccsnarchive/data/Huedepohl2014_phd_thesis/, 
# Huedepohl, L. (2014), Neutrinos from the Formation, Cooling and Black Hole Collapse of Neutron Stars, PhD. Thesis, Technische Universitat Muenchen
# time (s), <energy> (MeV), alpha, luminosity (foe/s), for nu_e, nu_e_bar, nu_mu
-0.000436655 8.5107 6.453 1.14441e+53 0 0 0 0 0 0
-0.000336655 8.52745 6.4536 1.14892e+53 3.45815 1.85639 2.17126e+45 3.73721 1.66007 1.85386e+45
-0.000236655 8.54454 6.45489 1.15272e+53 3.38931 2.47223 4.6987e+45 3.51674 2.30481 3.49392e+45
-0.000136655 8.56197 6.45696 1.15575e+53 3.40189 2.70246 8.63725e+45 3.47043 2.68629 5.91943e+45
-3.66546e-05 8.57971 6.45979 1.15798e+53 3.42827 2.8451 1.41718e+46 3.46206 2.8661 9.49121e+45
6.33454e-05 8.59742 6.46338 1.16142e+53 3.44731 2.82432 2.07705e+46 3.48702 3.01186 1.41057e+46
0.000163345 8.61641 6.46782 1.16163e+53 3.4536 2.7681 2.85252e+46 3.51704 3.06741 1.9512e+46
0.000263345 8.6351 6.4728 1.16075e+53 3.46557 2.73001 3.7711e+46 3.5489 3.10062 2.58588e+46
0.000363345 8.65397 6.47871 1.15882e+53 3.49857 2.71784 4.82276e+46 3.59187 3.11726 3.30395e+46
0.000463345 8.67297 6.48545 1.15588e+53 3.55186 2.72054 6.01738e+46 3.64115 3.12957 4.11855e+46
0.000563345 8.69204 6.49288 1.15187e+53 3.61378 2.7262 7.33232e+46 3.68284 3.08625 5.03511e+46
0.000663345 8.71122 6.50102 1.14669e+53 3.67649 2.72874 8.73125e+46 3.46915 2.64795 6.558e+46
0.000763345 8.73052 6.50992 1.14021e+53 3.73651 2.72456 1.01856e+47 3.25718 3.17733 1.23894e+47
0.000863345 8.74998 6.51966 1.13243e+53 3.79353 2.71254 1.16813e+47 3.27149 3.60009 2.64053e+47
0.000963345 8.76948 6.53034 1.12323e+53 3.84748 2.69317 1.32166e+47 3.33853 3.76156 5.72379e+47
0.00106335 8.78923 6.54205 1.11266e+53 3.89804 2.66911 1.47888e+47 3.43717 3.82071 1.21133e+48
0.00116335 8.80907 6.55486 1.10072e+53 3.94407 2.64358 1.63884e+47 3.54243 3.92409 2.50775e+48
0.00126335 8.82895 6.56884 1.0874e+53 3.98654 2.62895 1.81073e+47 3.63462 4.03121 5.0574e+48
0.00136335 8.84879 6.58392 1.0727e+53 4.10514 3.02458 2.28306e+47 3.72409 4.11563 9.76417e+48
0.00146335 8.86858 6.60002 1.05653e+53 4.2953 4.00356 3.85343e+47 3.81186 4.20901 1.81826e+49
0.00156335 8.8884 6.61711 1.03892e+53 4.42345 4.84738 7.41121e+47 3.90533 4.31866 3.22193e+49
0.00166335 8.90839 6.63545 1.01991e+53 4.45093 5.03613 1.40254e+48 4.00765 4.41775 5.38482e+49
0.00176335 8.92876 6.65579 9.99519e+52 4.48453 5.02483 2.56609e+48 4.12883 4.49284 8.54199e+49
0.00186335 8.94983 6.67981 9.77751e+52 4.53127 4.99119 4.7846e+48 4.27668 4.48858 1.30275e+50
0.00196335 8.97122 6.70623 9.55206e+52 4.59858 4.97732 7.98815e+48 4.4451 4.43458 1.85683e+50
0.00206335 8.99237 6.73337 9.3212e+52 4.69782 4.96025 1.2021e+49 4.63229 4.34801 2.52641e+50
0.00216335 9.01252 6.75887 9.08804e+52 4.83679 4.91175 1.6622e+49 4.83689 4.24691 3.32272e+50
0.00226335 9.02891 6.7753 8.86044e+52 5.00993 4.79541 2.12432e+49 5.07161 4.14012 4.32263e+50
0.00236335 9.04117 6.78251 8.64562e+52 5.19264 4.64916 2.56195e+49 5.32538 4.04046 5.48032e+50
0.00246335 9.04965 6.78125 8.44253e+52 5.38411 4.47551 2.97713e+49 5.59663 3.94732 6.78259e+50
0.00256335 9.04934 6.76496 8.28588e+52 5.57518 4.28912 3.35379e+49 5.90023 3.87674 8.46248e+50
0.00266335 9.0463 6.74631 8.16136e+52 5.76043 4.10849 3.717e+49 6.21323 3.82168 1.03429e+51
0.00276335 9.03991 6.72503 8.07817e+52 5.93794 3.936 4.06357e+49 6.53769 3.78658 1.24785e+51
0.00286335 9.03486 6.70996 8.07882e+52 6.09689 3.78688 4.38941e+49 6.86347 3.77659 1.50306e+51
0.00296335 9.03371 6.69921 8.12946e+52 6.24614 3.65018 4.70735e+49 7.18551 3.77522 1.77851e+51
0.00306335 9.03997 6.69541 8.25716e+52 6.38104 3.53195 5.01513e+49 7.49975 3.78424 2.08306e+51
0.00316335 9.06241 6.69303 8.49151e+52 6.50244 3.43292 5.32064e+49 7.79876 3.79708 2.4169e+51
0.00326335 9.09592 6.68761 8.79193e+52 6.61747 3.34412 5.62914e+49 8.08842 3.81021 2.76518e+51
0.00336335 9.15059 6.67137 9.21005e+52 6.7239 3.27122 5.949e+49 8.36159 3.82107 3.1341e+51
0.00346335 9.22914 6.63303 9.75835e+52 6.82656 3.21128 6.29782e+49 8.61828 3.82558 3.51575e+51
0.00356335 9.31823 6.58492 1.03642e+53 6.92756 3.15708 6.65944e+49 8.86768 3.82728 3.90303e+51
0.00366335 9.44012 6.51082 1.11766e+53 7.0297 3.11939 7.09537e+49 9.09372 3.81659 4.29623e+51
0.00376335 9.56577 6.43375 1.20126e+53 7.13196 3.08359 7.5398e+49 9.31708 3.80447 4.69011e+51
0.00386335 9.71421 6.34812 1.30412e+53 7.23999 3.06237 8.08904e+49 9.52125 3.77809 5.07348e+51
0.00396335 9.86798 6.26049 1.41149e+53 7.34938 3.04457 8.66282e+49 9.72092 3.74836 5.45439e+51
0.00406335 10.0315 6.17846 1.53345e+53 7.46562 3.03847 9.36218e+49 9.90271 3.71426 5.81002e+51
0.00416335 10.1988 6.09858 1.66099e+53 7.58447 3.03685 1.01096e+50 10.0777 3.67848 6.15597e+51
0.00426335 10.3669 6.0284 1.79762e+53 7.70858 3.04364 1.09968e+50 10.2356 3.64395 6.48237e+51
0.00436335 10.5355 5.96377 1.93944e+53 7.8357 3.05523 1.19638e+50 10.3838 3.61014 6.79758e+51
0.00446335 10.6999 5.90755 2.08489e+53 7.96505 3.07203 1.30765e+50 10.5239 3.56918 7.09436e+51
0.00456335 10.861 5.85822 2.23332e+53 8.09623 3.09311 1.43089e+50 10.6574 3.52235 7.37603e+51
0.00466335 11.016 5.81451 2.38095e+53 8.22687 3.11665 1.56842e+50 10.7832 3.47365 7.64064e+51
0.00476335 11.164 5.77731 2.52767e+53 8.35687 3.14307 1.72259e+50 10.9002 3.42279 7.88542e+51
0.00486335 11.3059 5.74335 2.67089e+53 8.48486 3.17028 1.89002e+50 11.0111 3.37167 8.11717e+51
0.00496335 11.4377 5.71478 2.8083e+53 8.60949 3.19879 2.07955e+50 11.112 3.32014 8.32723e+51
0.00506335 11.5646 5.68803 2.9413e+53 8.73178 3.22737 2.2804e+50 11.2088 3.269 8.5287e+51
0.00516335 11.6797 5.66576 3.06341e+53 8.84827 3.25609 2.50927e+50 11.2956 3.21885 8.70893e+51
0.00526335 11.7916 5.64444 3.1819e+53 8.96289 3.28457 2.74695e+50 11.38 3.1693 8.88462e+51
0.00536335 11.8908 5.62684 3.28599e+53 9.07011 3.31207 3.01964e+50 11.4546 3.12213 9.04225e+51
0.00546335 11.9883 5.60959 3.38792e+53 9.17623 3.33927 3.29775e+50 11.5281 3.07539 9.19807e+51
0.00556335 12.0727 5.59507 3.47314e+53 9.27379 3.36404 3.61801e+50 11.5925 3.03199 9.33988e+51
0.00566335 12.1567 5.58059 3.55779e+53 9.37102 3.38868 3.93971e+50 11.6566 2.98871 9.4814e+51
0.00576335 12.2259 5.5678 3.62206e+53 9.45653 3.4082 4.31342e+50 11.7118 2.94977 9.61279e+51
0.00586335 12.2951 5.555 3.68633e+53 9.54203 3.42772 4.68714e+50 11.7669 2.91083 9.74417e+51
0.00596335 12.3567 5.54301 3.74013e+53 9.6217 3.44466 5.09374e+50 11.8181 2.87464 9.87422e+51
0.00606335 12.4114 5.53176 3.78426e+53 9.69597 3.45922 5.5307e+50 11.8656 2.84098 1.0003e+52
0.00616335 12.466 5.52051 3.82819e+53 9.77015 3.47372 5.96836e+50 11.9131 2.80738 1.01319e+52
0.00626335 12.5081 5.50961 3.85441e+53 9.83482 3.48277 6.47066e+50 11.9549 2.77888 1.02629e+52
0.00636335 12.5502 5.49871 3.88063e+53 9.8995 3.49182 6.97295e+50 11.9966 2.75038 1.03939e+52
0.00646335 12.5864 5.4871 3.89856e+53 9.96007 3.49882 7.5092e+50 12.0359 2.72419 1.0526e+52
0.00656335 12.6167 5.47478 3.90825e+53 10.0166 3.50377 8.07922e+50 12.0727 2.7003 1.06591e+52
0.00666335 12.6471 5.46245 3.91794e+53 10.0731 3.50873 8.64923e+50 12.1095 2.67642 1.07922e+52
0.00676335 12.667 5.44883 3.91325e+53 10.1191 3.50749 9.26963e+50 12.1406 2.65664 1.09226e+52
0.00686335 12.6869 5.4352 3.90844e+53 10.1651 3.5062 9.89042e+50 12.1717 2.6369 1.1053e+52
0.00696335 12.7017 5.42031 3.89591e+53 10.2065 3.50277 1.05336e+51 12.1991 2.61917 1.11786e+52
0.00706335 12.7112 5.40407 3.87513e+53 10.243 3.49705 1.12007e+51 12.2228 2.6036 1.1299e+52
0.00716335 12.7206 5.38783 3.85435e+53 10.2794 3.49133 1.18679e+51 12.2464 2.58804 1.14194e+52
0.00726335 12.7195 5.36821 3.82027e+53 10.306 3.48497 1.25643e+51 12.2617 2.57704 1.15271e+52
0.00736335 12.7182 5.3485 3.78582e+53 10.3323 3.47859 1.32615e+51 12.2768 2.56617 1.16344e+52
0.00746335 12.7133 5.32753 3.74854e+53 10.3544 3.4727 1.39731e+51 12.2889 2.55799 1.17408e+52
0.00756335 12.7045 5.30512 3.70796e+53 10.3715 3.46738 1.47013e+51 12.2974 2.55293 1.18459e+52
0.00766335 12.6957 5.2827 3.66739e+53 10.3886 3.46205 1.54295e+51 12.3059 2.54786 1.19511e+52
0.00776335 12.6842 5.25807 3.62567e+53 10.406 3.45917 1.62345e+51 12.312 2.5484 1.20692e+52
0.00786335 12.6725 5.23335 3.58389e+53 10.4234 3.45641 1.70431e+51 12.318 2.54919 1.2188e+52
0.00796335 12.6593 5.20831 3.54175e+53 10.443 3.45509 1.79016e+51 12.3242 2.55192 1.23153e+52
0.00806335 12.6443 5.18289 3.49916e+53 10.4651 3.45558 1.88222e+51 12.3307 2.55705 1.24533e+52
0.00816335 12.6293 5.15746 3.45657e+53 10.4872 3.45607 1.97429e+51 12.3373 2.56218 1.25912e+52
0.00826335 12.6126 5.13375 3.4156e+53 10.5123 3.45815 2.07655e+51 12.346 2.56968 1.27449e+52
0.00836335 12.5958 5.11017 3.37476e+53 10.5377 3.46035 2.17963e+51 12.355 2.57737 1.28998e+52
0.00846335 12.5787 5.08782 3.33533e+53 10.5644 3.46275 2.28747e+51 12.3649 2.58547 1.30592e+52
0.00856335 12.5614 5.06733 3.29799e+53 10.5932 3.46544 2.40244e+51 12.3762 2.59419 1.32254e+52
0.00866335 12.544 5.04683 3.26065e+53 10.622 3.46812 2.5174e+51 12.3876 2.60291 1.33916e+52
0.00876335 12.524 5.02798 3.22288e+53 10.653 3.47205 2.64299e+51 12.4007 2.6117 1.35628e+52
0.00886335 12.5037 5.00932 3.18506e+53 10.6843 3.47611 2.76975e+51 12.414 2.62049 1.37346e+52
0.00896335 12.483 4.99233 3.14881e+53 10.7143 3.48077 2.89951e+51 12.4278 2.62918 1.39074e+52
0.00906335 12.4615 4.97791 3.11497e+53 10.7425 3.48634 3.03387e+51 12.4424 2.63772 1.40819e+52
0.00916335 12.4401 4.96349 3.08112e+53 10.7707 3.49192 3.16822e+51 12.457 2.64625 1.42563e+52
0.00926335 12.4185 4.95047 3.04931e+53 10.7948 3.49966 3.30836e+51 12.4725 2.6542 1.44309e+52
0.00936335 12.3968 4.93763 3.01776e+53 10.8183 3.50767 3.44923e+51 12.4881 2.66208 1.46055e+52
0.00946335 12.375 4.92477 2.98632e+53 10.8418 3.51604 3.59297e+51 12.504 2.66965 1.4779e+52
0.00956335 12.353 4.91185 2.95511e+53 10.8649 3.52507 3.74198e+51 12.5204 2.67667 1.49503e+52
0.00966335 12.3309 4.89894 2.9239e+53 10.8881 3.53409 3.89099e+51 12.5367 2.68368 1.51217e+52
0.00976335 12.3063 4.88643 2.89275e+53 10.9065 3.54395 4.04064e+51 12.5526 2.69012 1.52891e+52
0.00986335 12.2812 4.87399 2.86162e+53 10.9239 3.55396 4.19041e+51 12.5683 2.69646 1.54557e+52
0.00996335 12.2562 4.86264 2.83151e+53 10.9385 3.56479 4.33959e+51 12.5839 2.70274 1.56215e+52
0.0100633 12.2314 4.85363 2.8036e+53 10.9467 3.57739 4.48751e+51 12.5992 2.70888 1.57853e+52
0.0101633 12.2066 4.84463 2.7757e+53 10.9549 3.58999 4.63543e+51 12.6145 2.71501 1.59492e+52
0.0102633 12.1797 4.83633 2.74736e+53 10.9595 3.6025 4.7845e+51 12.6284 2.72095 1.61099e+52
0.0103633 12.1522 4.82823 2.7189e+53 10.9631 3.61498 4.93388e+51 12.642 2.72684 1.62697e+52
0.0104633 12.1252 4.82067 2.69108e+53 10.9657 3.6277 5.08358e+51 12.6557 2.73264 1.64302e+52
0.0105633 12.0993 4.81467 2.66511e+53 10.9653 3.64113 5.23419e+51 12.6694 2.73823 1.65922e+52
0.0106633 12.0734 4.80866 2.63914e+53 10.9649 3.65456 5.3848e+51 12.6831 2.74381 1.67542e+52
0.0107633 12.0474 4.80342 2.61338e+53 10.9629 3.6681 5.53866e+51 12.6971 2.74968 1.69219e+52
0.0108633 12.0215 4.79847 2.58771e+53 10.9603 3.68168 5.69377e+51 12.7113 2.75566 1.70918e+52
0.0109633 11.9953 4.79394 2.56242e+53 10.9578 3.69506 5.85069e+51 12.7253 2.76167 1.72628e+52
0.0110633 11.9685 4.79113 2.53875e+53 10.9556 3.70761 6.01511e+51 12.7387 2.76776 1.74386e+52
0.0111633 11.9416 4.78832 2.51508e+53 10.9534 3.72017 6.17954e+51 12.752 2.77385 1.76143e+52
0.0112633 11.9173 4.78731 2.49287e+53 10.9526 3.73281 6.34912e+51 12.7663 2.77972 1.77943e+52
0.0113633 11.8942 4.7872 2.47139e+53 10.9524 3.74549 6.5213e+51 12.7811 2.78549 1.79764e+52
0.0114633 11.8712 4.78655 2.44995e+53 10.9523 3.75813 6.69394e+51 12.796 2.79116 1.81592e+52
0.0115633 11.8486 4.78248 2.42873e+53 10.9521 3.77043 6.86957e+51 12.8115 2.79629 1.83464e+52
0.0116633 11.826 4.7784 2.4075e+53 10.952 3.78274 7.0452e+51 12.8269 2.80142 1.85336e+52
0.0117633 11.8041 4.77364 2.38818e+53 10.9525 3.79345 7.22304e+51 12.8421 2.80654 1.87233e+52
0.0118633 11.7827 4.76844 2.3701e+53 10.9533 3.80312 7.40234e+51 12.8572 2.81164 1.89147e+52
0.0119633 11.7616 4.76358 2.35224e+53 10.9543 3.81256 7.58177e+51 12.8723 2.81678 1.91065e+52
0.0120633 11.745 4.76289 2.3371e+53 10.9569 3.81902 7.76281e+51 12.8883 2.82228 1.93031e+52
0.0121633 11.7285 4.76221 2.32195e+53 10.9594 3.82549 7.94386e+51 12.9043 2.82779 1.94997e+52
0.0122633 11.712 4.76158 2.30609e+53 10.9613 3.83163 8.12331e+51 12.9204 2.83337 1.96985e+52
0.0123633 11.6958 4.761 2.28961e+53 10.9627 3.83751 8.30144e+51 12.9365 2.83899 1.98992e+52
0.0124633 11.6794 4.76034 2.27313e+53 10.964 3.84341 8.47954e+51 12.9527 2.84462 2.00999e+52
0.0125633 11.6606 4.75428 2.25585e+53 10.9624 3.851 8.65569e+51 12.9673 2.84995 2.0303e+52
0.0126633 11.6419 4.74821 2.23858e+53 10.9609 3.85858 8.83184e+51 12.9818 2.85529 2.05062e+52
0.0127633 11.6239 4.74206 2.22271e+53 10.9589 3.86715 9.00801e+51 12.9963 2.86045 2.07114e+52
0.0128633 11.6069 4.73581 2.20836e+53 10.9562 3.87676 9.18419e+51 13.0106 2.86541 2.0919e+52
0.0129633 11.5899 4.72957 2.19401e+53 10.9536 3.88637 9.36037e+51 13.0249 2.87038 2.11265e+52
0.0130633 11.5764 4.72896 2.18186e+53 10.9522 3.89462 9.53691e+51 13.0403 2.87549 2.13389e+52
0.0131633 11.5631 4.72863 2.16983e+53 10.9509 3.9028 9.71348e+51 13.0558 2.8806 2.15515e+52
0.0132633 11.5494 4.72815 2.15688e+53 10.9507 3.90903 9.89077e+51 13.0714 2.88578 2.17649e+52
0.0133633 11.5354 4.72747 2.14268e+53 10.9522 3.91262 1.0069e+52 13.0872 2.89106 2.19794e+52
0.0134633 11.5214 4.72678 2.12847e+53 10.9537 3.9162 1.02473e+52 13.103 2.89633 2.21939e+52
0.0135633 11.5062 4.71871 2.11376e+53 10.9556 3.91787 1.04253e+52 13.1173 2.90128 2.24059e+52
0.0136633 11.4909 4.70975 2.099e+53 10.9576 3.91931 1.06033e+52 13.1315 2.90619 2.26176e+52
0.0137633 11.4764 4.6996 2.08521e+53 10.9583 3.922 1.07773e+52 13.1452 2.91092 2.28273e+52
0.0138633 11.4634 4.68734 2.07316e+53 10.9567 3.92691 1.09443e+52 13.1581 2.9153 2.30335e+52
0.0139633 11.4503 4.67509 2.0611e+53 10.955 3.93181 1.11113e+52 13.171 2.91969 2.32397e+52
0.0140633 11.4371 4.6693 2.04929e+53 10.9503 3.94041 1.12689e+52 13.1843 2.92394 2.34424e+52
0.0141633 11.4239 4.66482 2.03753e+53 10.9449 3.94975 1.14245e+52 13.1977 2.92816 2.36444e+52
0.0142633 11.4108 4.66185 2.02558e+53 10.9404 3.959 1.15814e+52 13.2112 2.93242 2.38453e+52
0.0143633 11.398 4.66198 2.01323e+53 10.9378 3.96805 1.17406e+52 13.2251 2.93674 2.40437e+52
0.0144633 11.3852 4.6621 2.00089e+53 10.9351 3.9771 1.18999e+52 13.239 2.94106 2.42422e+52
0.0145633 11.3709 4.6561 1.98714e+53 10.935 3.98171 1.20628e+52 13.2511 2.94494 2.44328e+52
0.0146633 11.3561 4.64855 1.97305e+53 10.9356 3.9852 1.22267e+52 13.2626 2.94871 2.46213e+52
0.0147633 11.3413 4.63958 1.95922e+53 10.9367 3.9877 1.23909e+52 13.2736 2.95234 2.48075e+52
0.0148633 11.3264 4.62674 1.94614e+53 10.9388 3.98746 1.25562e+52 13.2832 2.9556 2.4987e+52
0.0149633 11.3115 4.61389 1.93306e+53 10.941 3.98722 1.27214e+52 13.2927 2.95886 2.51665e+52
0.0150633 11.2978 4.60717 1.92166e+53 10.9432 3.9901 1.28866e+52 13.3025 2.96235 2.53433e+52
0.0151633 11.2846 4.60266 1.91088e+53 10.9454 3.9941 1.30519e+52 13.3124 2.96593 2.55191e+52
0.0152633 11.271 4.59875 1.89971e+53 10.9473 3.9989 1.32162e+52 13.3222 2.96947 2.56928e+52
0.0153633 11.2558 4.59717 1.88701e+53 10.9479 4.00681 1.3377e+52 13.3313 2.97285 2.58585e+52
0.0154633 11.2407 4.5956 1.8743e+53 10.9485 4.01473 1.35378e+52 13.3404 2.97622 2.60241e+52
0.0155633 11.2238 4.58726 1.86023e+53 10.9492 4.02005 1.36982e+52 13.3483 2.97861 2.61807e+52
0.0156633 11.2061 4.57561 1.84548e+53 10.9499 4.0241 1.38585e+52 13.3556 2.9805 2.63328e+52
0.0157633 11.1888 4.56371 1.8312e+53 10.9509 4.02772 1.40197e+52 13.3628 2.98239 2.64843e+52
0.0158633 11.174 4.55029 1.81981e+53 10.954 4.02861 1.41871e+52 13.3698 2.98421 2.66314e+52
0.0159633 11.1593 4.53687 1.80842e+53 10.9571 4.02951 1.43546e+52 13.3768 2.98603 2.67785e+52
0.0160633 11.1458 4.52962 1.79822e+53 10.9615 4.03094 1.45263e+52 13.3842 2.98847 2.69252e+52
0.0161633 11.1331 4.52633 1.78877e+53 10.9668 4.03271 1.47009e+52 13.392 2.99132 2.70716e+52
0.0162633 11.1203 4.52332 1.77917e+53 10.972 4.03468 1.48754e+52 13.3998 2.99418 2.72176e+52
0.0163633 11.1052 4.52371 1.76757e+53 10.9766 4.039 1.50499e+52 13.4071 2.99713 2.73578e+52
0.0164633 11.0902 4.5241 1.75598e+53 10.9812 4.04332 1.52245e+52 13.4145 3.00007 2.74979e+52
0.0165633 11.0745 4.52055 1.74421e+53 10.9844 4.04871 1.53974e+52 13.4205 3.0027 2.76307e+52
0.0166633 11.0583 4.51371 1.7323e+53 10.9864 4.055 1.5569e+52 13.4252 3.00505 2.77574e+52
0.0167633 11.0422 4.50684 1.72042e+53 10.9884 4.06129 1.57406e+52 13.43 3.0074 2.78839e+52
0.0168633 11.0284 4.49751 1.71106e+53 10.9903 4.06763 1.59157e+52 13.4339 3.00932 2.80035e+52
0.0169633 11.0146 4.48817 1.7017e+53 10.9922 4.07397 1.60909e+52 13.4378 3.01124 2.8123e+52
0.0170633 11.0017 4.48342 1.69328e+53 10.9953 4.07975 1.62706e+52 13.4423 3.01322 2.82434e+52
0.0171633 10.9896 4.48359 1.68587e+53 10.9995 4.08492 1.64553e+52 13.4476 3.01526 2.83648e+52
0.0172633 10.9775 4.48376 1.67845e+53 11.0037 4.09009 1.66399e+52 13.4529 3.0173 2.84863e+52
0.0173633 10.9653 4.48874 1.67031e+53 11.0104 4.09281 1.68342e+52 13.4589 3.01961 2.86074e+52
0.0174633 10.9531 4.49396 1.66213e+53 11.0172 4.09541 1.70289e+52 13.465 3.02193 2.87285e+52
0.0175633 10.9394 4.49688 1.65263e+53 11.0241 4.09697 1.7226e+52 13.4703 3.02411 2.88459e+52
0.0176633 10.9234 4.49659 1.64131e+53 11.0313 4.09708 1.74263e+52 13.4744 3.02609 2.89581e+52
0.0177633 10.9074 4.49631 1.63e+53 11.0384 4.09719 1.76266e+52 13.4786 3.02807 2.90704e+52
0.0178633 10.8923 4.48825 1.61923e+53 11.0451 4.09763 1.78292e+52 13.4814 3.02958 2.91774e+52
0.0179633 10.8772 4.47922 1.60853e+53 11.0516 4.09812 1.80322e+52 13.484 3.03104 2.92838e+52
0.0180633 10.8636 4.4704 1.59881e+53 11.058 4.09936 1.82354e+52 13.4868 3.03248 2.93916e+52
0.0181633 10.8523 4.46195 1.59083e+53 11.0642 4.10196 1.8439e+52 13.4902 3.03391 2.95021e+52
0.0182633 10.8411 4.45349 1.58284e+53 11.0703 4.10455 1.86427e+52 13.4936 3.03534 2.96125e+52
0.0183633 10.8304 4.45289 1.57581e+53 11.0768 4.10733 1.88472e+52 13.4986 3.03699 2.97293e+52
0.0184633 10.8198 4.4539 1.56898e+53 11.0835 4.11015 1.90519e+52 13.5039 3.0387 2.98474e+52
0.0185633 10.8092 4.45627 1.56197e+53 11.0903 4.1127 1.92567e+52 13.5094 3.04042 2.99661e+52
0.0186633 10.7982 4.46182 1.55455e+53 11.0978 4.11458 1.94616e+52 13.5156 3.0422 3.00862e+52
0.0187633 10.7872 4.46738 1.54714e+53 11.1052 4.11646 1.96665e+52 13.5219 3.04397 3.02063e+52
0.0188633 10.7744 4.47071 1.53839e+53 11.1118 4.11792 1.98689e+52 13.5267 3.04554 3.03231e+52
0.0189633 10.7611 4.47337 1.52924e+53 11.1181 4.11926 2.00707e+52 13.531 3.04706 3.04389e+52
0.0190633 10.7476 4.47499 1.52011e+53 11.1242 4.12058 2.02725e+52 13.535 3.0485 3.05546e+52
0.0191633 10.7334 4.47328 1.51106e+53 11.1295 4.12183 2.04745e+52 13.5377 3.04972 3.06698e+52
0.0192633 10.7192 4.47157 1.50202e+53 11.1347 4.12309 2.06765e+52 13.5405 3.05093 3.0785e+52
0.0193633 10.7081 4.46683 1.49471e+53 11.1404 4.125 2.08819e+52 13.5439 3.052 3.0904e+52
0.0194633 10.6981 4.46084 1.48812e+53 11.1462 4.12718 2.10887e+52 13.5477 3.05301 3.10244e+52
0.0195633 10.689 4.4544 1.48192e+53 11.1521 4.12953 2.12961e+52 13.5519 3.05395 3.1146e+52
0.0196633 10.6839 4.44591 1.47752e+53 11.1587 4.13264 2.15066e+52 13.5576 3.05463 3.12726e+52
0.0197633 10.6787 4.43742 1.47313e+53 11.1652 4.13575 2.17172e+52 13.5634 3.0553 3.13992e+52
0.0198633 10.6735 4.43226 1.46894e+53 11.1723 4.13828 2.19293e+52 13.57 3.05562 3.15296e+52
0.0199633 10.6683 4.42893 1.46487e+53 11.1796 4.14049 2.21424e+52 13.577 3.05575 3.1662e+52
0.0200633 10.663 4.42639 1.46079e+53 11.187 4.14257 2.2356e+52 13.5841 3.05586 3.17953e+52
0.0201633 10.6568 4.42975 1.45667e+53 11.1953 4.14369 2.25738e+52 13.592 3.05583 3.19363e+52
0.0202633 10.6506 4.43311 1.45255e+53 11.2036 4.14481 2.27917e+52 13.5999 3.0558 3.20773e+52
0.0203633 10.6449 4.43654 1.44838e+53 11.2123 4.14621 2.30123e+52 13.6083 3.05593 3.22227e+52
0.0204633 10.6396 4.44001 1.44417e+53 11.2213 4.14782 2.32349e+52 13.6171 3.05617 3.23711e+52
