# If you use this flux, cite http://wwwmpa.mpa-garching.mpg.de/ccsnarchive/data/Huedepohl2014_phd_thesis/, 
# Huedepohl, L. (2014), Neutrinos from the Formation, Cooling and Black Hole Collapse of Neutron Stars, PhD. Thesis, Technische Universitat Muenchen
# time (s), <energy> (MeV), alpha, luminosity (foe/s), for nu_e, nu_e_bar, nu_mu
-0.000419064 8.46568 6.56148 1.13242e+53 0 0 0 0 0 0
-0.000319064 8.48192 6.56298 1.13745e+53 3.48589 2.76918 2.38281e+45 3.28177 2.38641 1.79397e+45
-0.000219064 8.49853 6.56519 1.14181e+53 3.46795 3.02855 6.09792e+45 3.22128 2.77383 3.84564e+45
-0.000119064 8.51548 6.5682 1.14544e+53 3.48558 3.14233 1.18944e+46 3.21372 2.95046 6.75214e+45
-1.90638e-05 8.53277 6.572 1.14831e+53 3.51134 3.21144 1.97991e+46 3.21996 3.04911 1.07719e+46
8.09362e-05 8.55036 6.57661 1.15219e+53 3.5236 3.19095 3.03515e+46 3.23695 3.10249 1.65961e+46
0.000180936 8.56755 6.58172 1.15317e+53 3.51883 3.17544 4.15989e+46 3.24743 3.13619 2.29596e+46
0.000280936 8.58516 6.58779 1.15302e+53 3.51389 3.1539 5.33156e+46 3.25849 3.15381 3.0072e+46
0.000380936 8.6031 6.5948 1.15176e+53 3.51367 3.13075 6.50981e+46 3.27452 3.15675 3.77868e+46
0.000480936 8.6213 6.60277 1.14947e+53 3.51898 3.10666 7.69675e+46 3.29627 3.14491 4.59565e+46
0.000580936 8.63976 6.61164 1.14614e+53 3.53009 3.0784 8.9178e+46 3.32285 3.11172 5.48676e+46
0.000680936 8.65847 6.62135 1.14174e+53 3.54697 3.04197 1.02031e+47 3.33249 3.01926 6.89213e+46
0.000780936 8.6774 6.63197 1.13609e+53 3.57009 2.9937 1.15834e+47 3.27039 3.40591 1.40086e+47
0.000880936 8.69652 6.64349 1.12919e+53 3.59893 2.93323 1.30691e+47 3.27861 3.7344 3.29168e+47
0.000980936 8.71581 6.65602 1.12096e+53 3.63261 2.86291 1.46619e+47 3.34875 3.80295 7.29662e+47
0.00108094 8.73527 6.66965 1.11139e+53 3.66935 2.78791 1.63499e+47 3.42602 3.82458 1.53438e+48
0.00118094 8.75486 6.68446 1.10049e+53 3.70683 2.71453 1.81098e+47 3.51059 3.89118 3.10696e+48
0.00128094 8.77452 6.70049 1.08822e+53 3.74431 2.65417 2.00606e+47 3.60158 3.95182 6.12992e+48
0.00138094 8.79419 6.71757 1.07464e+53 3.83197 2.74252 2.42969e+47 3.69117 4.03572 1.14347e+49
0.00148094 8.81389 6.73568 1.05953e+53 4.10824 3.53306 4.1929e+47 3.79107 4.13669 2.10347e+49
0.00158094 8.83376 6.75478 1.04303e+53 4.32458 4.39981 8.36292e+47 3.8983 4.2575 3.66822e+49
0.00168094 8.85399 6.77546 1.02513e+53 4.40956 4.82891 1.66505e+48 4.01611 4.36837 6.09163e+49
0.00178094 8.87476 6.79854 1.00594e+53 4.45677 4.915 3.14472e+48 4.15225 4.42959 9.52848e+49
0.00188094 8.89611 6.82447 9.85692e+52 4.50799 4.91215 5.46479e+48 4.30635 4.44059 1.39973e+50
0.00198094 8.91808 6.85369 9.64394e+52 4.58729 4.93102 9.08251e+48 4.47945 4.39853 1.98627e+50
0.00208094 8.94002 6.88394 9.4254e+52 4.69784 4.92138 1.35251e+49 4.66958 4.32746 2.68212e+50
0.00218094 8.96025 6.91028 9.20507e+52 4.84736 4.85667 1.82581e+49 4.88532 4.22873 3.54761e+50
0.00228094 8.97757 6.92912 8.98957e+52 5.01355 4.73784 2.26758e+49 5.11899 4.13625 4.5602e+50
0.00238094 8.99077 6.9381 8.7852e+52 5.18908 4.57389 2.66507e+49 5.37232 4.04894 5.75177e+50
0.00248094 8.9996 6.93707 8.59488e+52 5.3679 4.37881 3.01825e+49 5.64404 3.96334 7.12103e+50
0.00258094 9.00192 6.92466 8.43999e+52 5.5407 4.18252 3.33214e+49 5.93855 3.89709 8.79803e+50
0.00268094 9.00136 6.90846 8.30973e+52 5.70864 3.99175 3.63226e+49 6.24155 3.84347 1.06554e+51
0.00278094 8.99691 6.88916 8.22807e+52 5.86623 3.81859 3.91949e+49 6.55356 3.81386 1.28327e+51
0.00288094 8.99301 6.87375 8.20464e+52 6.01304 3.66932 4.20688e+49 6.8645 3.79967 1.53111e+51
0.00298094 8.99051 6.86129 8.22101e+52 6.15329 3.53502 4.49594e+49 7.17297 3.79474 1.79775e+51
0.00308094 8.99542 6.85658 8.32581e+52 6.2824 3.42848 4.79516e+49 7.46879 3.80508 2.0988e+51
0.00318094 9.00995 6.85353 8.50029e+52 6.40644 3.33834 5.10879e+49 7.75449 3.81539 2.41889e+51
0.00328094 9.03201 6.85147 8.72857e+52 6.52669 3.26068 5.43388e+49 8.03239 3.82559 2.75337e+51
0.00338094 9.07701 6.83912 9.09293e+52 6.64285 3.20604 5.80178e+49 8.29062 3.83268 3.11107e+51
0.00348094 9.135 6.81551 9.53053e+52 6.75917 3.16048 6.2011e+49 8.53941 3.83608 3.47562e+51
0.00358094 9.20789 6.77899 1.00521e+53 6.87569 3.12534 6.63643e+49 8.77739 3.83526 3.84804e+51
0.00368094 9.30903 6.7138 1.07432e+53 6.99592 3.10666 7.16445e+49 8.9963 3.82426 4.225e+51
0.00378094 9.41486 6.64453 1.14653e+53 7.11687 3.09072 7.71117e+49 9.21185 3.81149 4.60179e+51
0.00388094 9.54821 6.55712 1.23922e+53 7.24284 3.09107 8.39703e+49 9.40602 3.78768 4.96961e+51
0.00398094 9.68156 6.46971 1.33191e+53 7.36882 3.09142 9.08289e+49 9.6002 3.76387 5.33743e+51
0.00408094 9.83356 6.38187 1.44487e+53 7.49796 3.10449 9.94953e+49 9.77633 3.72391 5.67579e+51
0.00418094 9.98643 6.29401 1.55876e+53 7.62725 3.11815 1.08245e+50 9.95163 3.6832 6.01279e+51
0.00428094 10.1452 6.21504 1.68669e+53 7.7566 3.13885 1.18905e+50 10.1023 3.65003 6.32226e+51
0.00438094 10.3051 6.1376 1.81703e+53 7.88596 3.16077 1.29893e+50 10.2487 3.61816 6.62698e+51
0.00448094 10.4622 6.072 1.95458e+53 8.01277 3.18581 1.42831e+50 10.3834 3.57687 6.90675e+51
0.00458094 10.6185 6.01035 2.09453e+53 8.13873 3.21189 1.56417e+50 10.5142 3.53245 7.17821e+51
0.00468094 10.7681 5.95775 2.23562e+53 8.26029 3.23861 1.71891e+50 10.6342 3.48511 7.42644e+51
0.00478094 10.9142 5.91007 2.37735e+53 8.37946 3.2657 1.88393e+50 10.7484 3.4362 7.66203e+51
0.00488094 11.0527 5.8682 2.516e+53 8.49342 3.29193 2.06609e+50 10.8536 3.38724 7.87909e+51
0.00498094 11.185 5.83117 2.65209e+53 8.60305 3.31745 2.26259e+50 10.9514 3.33824 8.08068e+51
0.00508094 11.3105 5.79743 2.78302e+53 8.7078 3.34175 2.4741e+50 11.0425 3.28998 8.26944e+51
0.00518094 11.4275 5.76785 2.90742e+53 8.8064 3.3645 2.7046e+50 11.1253 3.24264 8.44201e+51
0.00528094 11.5393 5.74002 3.02625e+53 8.90122 3.38644 2.94748e+50 11.2038 3.19634 8.60656e+51
0.00538094 11.6411 5.7156 3.13419e+53 8.98868 3.40678 3.21452e+50 11.2737 3.15207 8.75548e+51
0.00548094 11.7395 5.69205 3.23783e+53 9.07363 3.42672 3.49074e+50 11.341 3.10877 8.90046e+51
0.00558094 11.8268 5.67131 3.32753e+53 9.15044 3.44535 3.79669e+50 11.3997 3.06864 9.03274e+51
0.00568094 11.912 5.65096 3.41452e+53 9.22577 3.46361 4.10847e+50 11.457 3.0292 9.16363e+51
0.00578094 11.9844 5.63313 3.48393e+53 9.29142 3.47954 4.45827e+50 11.5057 2.99424 9.28553e+51
0.00588094 12.0569 5.61531 3.55335e+53 9.35706 3.49548 4.80807e+50 11.5543 2.95928 9.40744e+51
0.00598094 12.1203 5.59885 3.60991e+53 9.41597 3.50893 5.18814e+50 11.5975 2.92787 9.52676e+51
0.00608094 12.1783 5.58321 3.65871e+53 9.47081 3.5209 5.58649e+50 11.6375 2.8986 9.64451e+51
0.00618094 12.2353 5.56772 3.70582e+53 9.52491 3.53265 5.99003e+50 11.6769 2.86987 9.76253e+51
0.00628094 12.2814 5.55375 3.73684e+53 9.57198 3.54244 6.44263e+50 11.7106 2.84627 9.88304e+51
0.00638094 12.3275 5.53977 3.76786e+53 9.61905 3.55222 6.89522e+50 11.7443 2.82267 1.00035e+52
0.00648094 12.3677 5.52625 3.79011e+53 9.66244 3.56077 7.3776e+50 11.7756 2.80212 1.01282e+52
0.00658094 12.4034 5.51306 3.80566e+53 9.70302 3.56838 7.88267e+50 11.8051 2.7839 1.02559e+52
0.00668094 12.4388 5.4999 3.82073e+53 9.74331 3.5759 8.38975e+50 11.8344 2.76586 1.0384e+52
0.00678094 12.4657 5.48741 3.82411e+53 9.7763 3.58128 8.94569e+50 11.861 2.75236 1.05215e+52
0.00688094 12.4927 5.47491 3.82749e+53 9.80928 3.58666 9.50163e+50 11.8876 2.73886 1.06591e+52
0.00698094 12.5156 5.4625 3.82614e+53 9.84002 3.59077 1.00858e+51 11.9134 2.72752 1.08038e+52
0.00708094 12.5345 5.45016 3.82027e+53 9.86862 3.59367 1.06969e+51 11.9383 2.71823 1.09554e+52
0.00718094 12.5534 5.43782 3.8144e+53 9.89723 3.59656 1.1308e+51 11.9633 2.70895 1.1107e+52
0.00728094 12.5679 5.42641 3.80232e+53 9.92109 3.59776 1.19682e+51 11.9883 2.70321 1.12727e+52
0.00738094 12.5824 5.41502 3.79012e+53 9.94488 3.59893 1.26292e+51 12.0133 2.69754 1.14387e+52
0.00748094 12.5943 5.40316 3.77513e+53 9.96804 3.59913 1.33156e+51 12.0385 2.69305 1.16104e+52
0.00758094 12.6033 5.39075 3.75678e+53 9.99046 3.59817 1.40324e+51 12.0638 2.68998 1.17891e+52
0.00768094 12.6122 5.37833 3.73843e+53 10.0129 3.59721 1.47492e+51 12.0891 2.68692 1.19677e+52
0.00778094 12.6181 5.36637 3.71759e+53 10.0311 3.59487 1.54995e+51 12.1146 2.68563 1.21565e+52
0.00788094 12.6237 5.35446 3.69655e+53 10.0491 3.59241 1.62525e+51 12.14 2.68449 1.23462e+52
0.00798094 12.6274 5.34208 3.67388e+53 10.0667 3.58989 1.70266e+51 12.1655 2.68393 1.25402e+52
0.00808094 12.6284 5.32901 3.64873e+53 10.0837 3.58727 1.78326e+51 12.191 2.68425 1.27408e+52
0.00818094 12.6293 5.31594 3.62358e+53 10.1007 3.58466 1.86387e+51 12.2165 2.68456 1.29414e+52
0.00828094 12.6284 5.30378 3.59802e+53 10.1168 3.58252 1.94891e+51 12.242 2.68588 1.31507e+52
0.00838094 12.6272 5.29176 3.57239e+53 10.1327 3.58044 2.03461e+51 12.2676 2.68735 1.33612e+52
0.00848094 12.6247 5.27913 3.54533e+53 10.1481 3.57888 2.12212e+51 12.2932 2.68908 1.35743e+52
0.00858094 12.6198 5.26533 3.51554e+53 10.1624 3.57831 2.21312e+51 12.319 2.69133 1.37924e+52
0.00868094 12.6149 5.25153 3.48575e+53 10.1767 3.57774 2.30412e+51 12.3448 2.69358 1.40105e+52
0.00878094 12.6083 5.23937 3.45737e+53 10.1921 3.57755 2.40066e+51 12.3705 2.69624 1.42352e+52
0.00888094 12.6014 5.22754 3.42928e+53 10.2076 3.57744 2.49834e+51 12.3962 2.69898 1.44612e+52
0.00898094 12.594 5.21529 3.40039e+53 10.2236 3.57766 2.59804e+51 12.422 2.70186 1.46887e+52
0.00908094 12.5858 5.20214 3.36973e+53 10.2401 3.57861 2.70214e+51 12.4483 2.70505 1.49198e+52
0.00918094 12.5776 5.18898 3.33907e+53 10.2567 3.57956 2.80623e+51 12.4745 2.70825 1.51509e+52
0.00928094 12.5662 5.17615 3.30826e+53 10.2721 3.58224 2.91493e+51 12.5002 2.71129 1.53839e+52
0.00938094 12.554 5.16342 3.2774e+53 10.287 3.58539 3.02486e+51 12.5257 2.71429 1.56174e+52
0.00948094 12.5419 5.15092 3.24677e+53 10.303 3.5888 3.13702e+51 12.5512 2.71734 1.58515e+52
0.00958094 12.5299 5.1391 3.21674e+53 10.3215 3.59296 3.25537e+51 12.5767 2.72048 1.60872e+52
0.00968094 12.5179 5.12728 3.18672e+53 10.34 3.59711 3.37372e+51 12.6022 2.72362 1.63229e+52
0.00978094 12.5027 5.11395 3.15483e+53 10.358 3.59997 3.49512e+51 12.6268 2.7264 1.65576e+52
0.00988094 12.4863 5.10009 3.12228e+53 10.3759 3.60237 3.61758e+51 12.651 2.72906 1.67919e+52
0.00998094 12.4698 5.08686 3.09055e+53 10.3927 3.60502 3.74037e+51 12.675 2.73162 1.70256e+52
0.0100809 12.4529 5.07585 3.06176e+53 10.4057 3.6085 3.86429e+51 12.698 2.73385 1.72574e+52
0.0101809 12.436 5.06485 3.03297e+53 10.4187 3.61197 3.98822e+51 12.7211 2.73607 1.74892e+52
0.0102809 12.4201 5.05291 3.00376e+53 10.433 3.61637 4.11749e+51 12.7443 2.73857 1.77211e+52
0.0103809 12.4046 5.04059 2.97438e+53 10.4479 3.62113 4.24892e+51 12.7677 2.74117 1.79531e+52
0.0104809 12.3881 5.028 2.94471e+53 10.463 3.62565 4.38154e+51 12.7908 2.74371 1.81843e+52
0.0105809 12.3671 5.01426 2.91381e+53 10.4786 3.62913 4.51935e+51 12.8122 2.74598 1.84116e+52
0.0106809 12.3461 5.00053 2.8829e+53 10.4942 3.6326 4.65716e+51 12.8336 2.74824 1.86389e+52
0.0107809 12.3266 4.98982 2.85455e+53 10.5074 3.63789 4.79638e+51 12.8546 2.75059 1.8865e+52
0.0108809 12.3078 4.98067 2.8275e+53 10.5194 3.64411 4.93631e+51 12.8753 2.75296 1.90905e+52
0.0109809 12.2889 4.97123 2.80006e+53 10.5308 3.65071 5.07639e+51 12.896 2.75534 1.93159e+52
0.0110809 12.2687 4.96001 2.77019e+53 10.5383 3.6598 5.21739e+51 12.9163 2.75773 1.95412e+52
0.0111809 12.2485 4.94879 2.74032e+53 10.5459 3.66889 5.35839e+51 12.9366 2.76011 1.97664e+52
0.0112809 12.226 4.9377 2.7112e+53 10.5529 3.67683 5.50218e+51 12.9557 2.76223 1.99883e+52
0.0113809 12.202 4.9267 2.68254e+53 10.5595 3.68405 5.64774e+51 12.9741 2.76417 2.02082e+52
0.0114809 12.1783 4.91586 2.65414e+53 10.5666 3.69093 5.79407e+51 12.9924 2.76611 2.04279e+52
0.0115809 12.157 4.90666 2.62845e+53 10.5776 3.69428 5.94859e+51 13.0102 2.76796 2.06465e+52
0.0116809 12.1357 4.89747 2.60276e+53 10.5887 3.69763 6.1031e+51 13.0281 2.76981 2.08651e+52
0.0117809 12.1142 4.88668 2.57624e+53 10.6001 3.70053 6.25879e+51 13.0462 2.77157 2.10834e+52
0.0118809 12.0925 4.87463 2.54907e+53 10.6119 3.70307 6.41542e+51 13.0645 2.77324 2.13015e+52
0.0119809 12.0707 4.86255 2.52196e+53 10.6235 3.7057 6.5719e+51 13.0827 2.7749 2.15193e+52
0.0120809 12.0469 4.84972 2.49654e+53 10.6302 3.71054 6.72427e+51 13.0991 2.77624 2.17288e+52
0.0121809 12.023 4.83689 2.47112e+53 10.6369 3.71538 6.87665e+51 13.1155 2.77758 2.19382e+52
0.0122809 12.0008 4.82569 2.44743e+53 10.6425 3.72065 7.02934e+51 13.1316 2.77916 2.21479e+52
0.0123809 11.98 4.81606 2.42539e+53 10.6469 3.72634 7.18233e+51 13.1474 2.78096 2.23577e+52
0.0124809 11.9592 4.80643 2.40335e+53 10.6513 3.73203 7.33532e+51 13.1632 2.78277 2.25676e+52
0.0125809 11.9381 4.79817 2.37991e+53 10.657 3.73652 7.49533e+51 13.1795 2.78527 2.27844e+52
0.0126809 11.917 4.78993 2.35644e+53 10.6628 3.741 7.65546e+51 13.1958 2.78779 2.30012e+52
0.0127809 11.8935 4.78089 2.33217e+53 10.6694 3.74552 7.81938e+51 13.2111 2.79004 2.32135e+52
0.0128809 11.8671 4.7709 2.30694e+53 10.6767 3.7501 7.98778e+51 13.2253 2.79198 2.34204e+52
0.0129809 11.8407 4.76091 2.28171e+53 10.6841 3.75467 8.15617e+51 13.2395 2.79393 2.36272e+52
0.0130809 11.8163 4.75348 2.26086e+53 10.692 3.76102 8.32881e+51 13.2524 2.79556 2.38266e+52
0.0131809 11.792 4.74623 2.24032e+53 10.6998 3.76748 8.50175e+51 13.2652 2.79718 2.40254e+52
0.0132809 11.7697 4.74091 2.22109e+53 10.7084 3.77372 8.67733e+51 13.2785 2.79911 2.42268e+52
0.0133809 11.7503 4.7384 2.20377e+53 10.718 3.77961 8.85675e+51 13.2923 2.8015 2.44321e+52
0.0134809 11.7309 4.73588 2.18645e+53 10.7276 3.78551 9.03618e+51 13.3062 2.80389 2.46373e+52
0.0135809 11.7092 4.7313 2.16634e+53 10.7408 3.78675 9.22482e+51 13.3194 2.80644 2.48385e+52
0.0136809 11.6871 4.72643 2.14587e+53 10.7545 3.78737 9.41469e+51 13.3326 2.80903 2.50393e+52
0.0137809 11.6637 4.71994 2.12519e+53 10.768 3.78703 9.6046e+51 13.3445 2.81139 2.52319e+52
0.0138809 11.6379 4.71049 2.10413e+53 10.7812 3.78492 9.79461e+51 13.3539 2.81337 2.54098e+52
0.0139809 11.612 4.70104 2.08308e+53 10.7943 3.78282 9.98462e+51 13.3634 2.81536 2.55877e+52
0.0140809 11.589 4.69387 2.06557e+53 10.8038 3.78371 1.01684e+52 13.3717 2.81772 2.57595e+52
0.0141809 11.5666 4.68716 2.04877e+53 10.8125 3.7852 1.0351e+52 13.3799 2.82015 2.59299e+52
0.0142809 11.5454 4.6819 2.03257e+53 10.8203 3.78809 1.05322e+52 13.3882 2.82298 2.61015e+52
0.0143809 11.5271 4.67994 2.01769e+53 10.826 3.79414 1.07104e+52 13.3972 2.8267 2.62756e+52
0.0144809 11.5087 4.67798 2.00281e+53 10.8318 3.80018 1.08885e+52 13.4061 2.83042 2.64498e+52
0.0145809 11.4861 4.67243 1.98443e+53 10.8361 3.80442 1.10631e+52 13.4122 2.8346 2.66084e+52
0.0146809 11.4622 4.66588 1.96507e+53 10.84 3.80816 1.12367e+52 13.4175 2.83891 2.67627e+52
0.0147809 11.4373 4.65828 1.9456e+53 10.8443 3.81059 1.14115e+52 13.4213 2.84341 2.69103e+52
0.0148809 11.4095 4.64759 1.92584e+53 10.8499 3.80923 1.15899e+52 13.4211 2.84847 2.7038e+52
0.0149809 11.3818 4.6369 1.90608e+53 10.8555 3.80787 1.17682e+52 13.4209 2.85353 2.71658e+52
0.0150809 11.3576 4.62969 1.88895e+53 10.8617 3.80909 1.19504e+52 13.4203 2.85977 2.72916e+52
0.0151809 11.3349 4.62396 1.87294e+53 10.8682 3.81141 1.21341e+52 13.4195 2.8665 2.74166e+52
0.0152809 11.3122 4.61825 1.85661e+53 10.8741 3.81484 1.23166e+52 13.4185 2.87342 2.75398e+52
0.0153809 11.2888 4.61268 1.83848e+53 10.8765 3.82471 1.24917e+52 13.4165 2.88143 2.76525e+52
0.0154809 11.2655 4.60711 1.82035e+53 10.8789 3.83458 1.26668e+52 13.4145 2.88944 2.77653e+52
0.0155809 11.2409 4.59675 1.80162e+53 10.8798 3.84477 1.28375e+52 13.4102 2.89752 2.78643e+52
0.0156809 11.2154 4.58308 1.78246e+53 10.8796 3.85519 1.30053e+52 13.4043 2.90564 2.79539e+52
0.0157809 11.19 4.56949 1.76345e+53 10.8796 3.86544 1.31732e+52 13.3983 2.91376 2.80435e+52
0.0158809 11.1687 4.55771 1.74805e+53 10.8823 3.87156 1.33464e+52 13.3922 2.92171 2.81336e+52
0.0159809 11.1473 4.54592 1.73264e+53 10.8851 3.87769 1.35195e+52 13.3861 2.92966 2.82237e+52
0.0160809 11.1263 4.53492 1.71693e+53 10.8884 3.88321 1.36935e+52 13.3807 2.93729 2.83171e+52
0.0161809 11.1056 4.52474 1.70091e+53 10.8922 3.8881 1.38682e+52 13.3762 2.94458 2.8414e+52
0.0162809 11.0849 4.51456 1.68488e+53 10.8959 3.893 1.40429e+52 13.3717 2.95186 2.8511e+52
0.0163809 11.0639 4.49519 1.66795e+53 10.8988 3.89971 1.42166e+52 13.3679 2.95798 2.86025e+52
0.0164809 11.0429 4.47512 1.65096e+53 10.9016 3.90656 1.43902e+52 13.3642 2.96401 2.86937e+52
0.0165809 11.0232 4.45628 1.63505e+53 10.9047 3.91483 1.45645e+52 13.3611 2.97004 2.8783e+52
0.0166809 11.0056 4.43951 1.62096e+53 10.9082 3.92547 1.474e+52 13.359 2.97609 2.88691e+52
0.0167809 10.988 4.42273 1.60688e+53 10.9117 3.9361 1.49154e+52 13.357 2.98214 2.89551e+52
0.0168809 10.9695 4.41124 1.59247e+53 10.9144 3.94821 1.50887e+52 13.3552 2.98783 2.90386e+52
0.0169809 10.9509 4.40091 1.57798e+53 10.917 3.96064 1.52615e+52 13.3534 2.99343 2.91215e+52
0.0170809 10.932 4.3888 1.56331e+53 10.9196 3.97253 1.54348e+52 13.3514 2.99881 2.92029e+52
0.0171809 10.9124 4.37181 1.5481e+53 10.9219 3.98294 1.56094e+52 13.3486 3.00355 2.92799e+52
0.0172809 10.8927 4.35482 1.53289e+53 10.9243 3.99335 1.5784e+52 13.3458 3.00829 2.93568e+52
0.0173809 10.8757 4.34054 1.51965e+53 10.9287 4.00465 1.59659e+52 13.3449 3.01268 2.9436e+52
0.0174809 10.8596 4.32735 1.50721e+53 10.9338 4.01631 1.61507e+52 13.3448 3.01694 2.9516e+52
0.0175809 10.8436 4.31488 1.49492e+53 10.939 4.02815 1.63363e+52 13.3448 3.02109 2.9595e+52
0.0176809 10.8279 4.30629 1.48341e+53 10.9446 4.04088 1.65255e+52 13.3452 3.02462 2.96684e+52
0.0177809 10.8122 4.29769 1.47191e+53 10.9503 4.05361 1.67148e+52 13.3456 3.02814 2.97419e+52
0.0178809 10.7962 4.2862 1.4605e+53 10.9565 4.06455 1.6908e+52 13.3456 3.03095 2.98105e+52
0.0179809 10.7801 4.27283 1.44916e+53 10.9631 4.0743 1.71038e+52 13.3454 3.03328 2.9876e+52
0.0180809 10.764 4.25974 1.43784e+53 10.9699 4.08391 1.73004e+52 13.3453 3.03559 2.99415e+52
0.0181809 10.7479 4.25229 1.427e+53 10.9802 4.0907 1.75118e+52 13.347 3.0376 3.00054e+52
0.0182809 10.7318 4.24484 1.41616e+53 10.9905 4.09749 1.77232e+52 13.3488 3.03961 3.00692e+52
0.0183809 10.7152 4.23877 1.40538e+53 11.0009 4.10371 1.79382e+52 13.3497 3.04154 3.01261e+52
0.0184809 10.6981 4.23435 1.39466e+53 11.0117 4.10925 1.81577e+52 13.3498 3.04337 3.01745e+52
0.0185809 10.6809 4.22993 1.38394e+53 11.0224 4.11479 1.83771e+52 13.3499 3.04521 3.02229e+52
0.0186809 10.6668 4.22115 1.3751e+53 11.0331 4.1202 1.86005e+52 13.3493 3.04623 3.02641e+52
0.0187809 10.6531 4.21166 1.36657e+53 11.0438 4.12559 1.88246e+52 13.3486 3.04711 3.03042e+52
0.0188809 10.6396 4.20365 1.35825e+53 11.0549 4.13075 1.90512e+52 13.3485 3.048 3.03454e+52
0.0189809 10.6268 4.19984 1.3505e+53 11.067 4.1353 1.92848e+52 13.3499 3.04887 3.03901e+52
0.0190809 10.6139 4.19602 1.34275e+53 11.079 4.13985 1.95184e+52 13.3513 3.04975 3.04347e+52
0.0191809 10.5969 4.19668 1.33344e+53 11.091 4.14246 1.97578e+52 13.3518 3.05089 3.04743e+52
0.0192809 10.5779 4.19955 1.32334e+53 11.103 4.1441 2.00002e+52 13.3519 3.05216 3.05114e+52
0.0193809 10.5587 4.20223 1.31324e+53 11.115 4.14566 2.0243e+52 13.3518 3.05337 3.05479e+52
0.0194809 10.538 4.20228 1.3031e+53 11.1263 4.14614 2.04922e+52 13.3496 3.0537 3.05768e+52
0.0195809 10.5174 4.20234 1.29297e+53 11.1375 4.14663 2.07413e+52 13.3475 3.05404 3.06056e+52
0.0196809 10.4995 4.20042 1.28414e+53 11.1493 4.14736 2.09948e+52 13.3466 3.05361 3.06402e+52
0.0197809 10.4846 4.19634 1.27673e+53 11.1616 4.14837 2.12531e+52 13.3471 3.05234 3.06812e+52
0.0198809 10.4698 4.19227 1.26932e+53 11.1739 4.14937 2.15114e+52 13.3476 3.05108 3.07222e+52
0.0199809 10.4554 4.19298 1.2623e+53 11.1867 4.15108 2.17782e+52 13.3501 3.05065 3.07733e+52
0.0200809 10.441 4.19434 1.25534e+53 11.1996 4.15288 2.20461e+52 13.3527 3.05032 3.08258e+52
0.0201809 10.4254 4.19729 1.24806e+53 11.2124 4.15431 2.23162e+52 13.3549 3.05043 3.08773e+52
0.0202809 10.4069 4.20423 1.23997e+53 11.2249 4.15481 2.25916e+52 13.3557 3.05161 3.09265e+52
0.0203809 10.3883 4.21117 1.23188e+53 11.2373 4.15531 2.2867e+52 13.3566 3.05279 3.09757e+52
0.0204809 10.3708 4.21738 1.22441e+53 11.2503 4.15483 2.31494e+52 13.3575 3.05355 3.10284e+52
