# If you use this flux, cite http://wwwmpa.mpa-garching.mpg.de/ccsnarchive/data/Huedepohl2014_phd_thesis/, 
# Huedepohl, L. (2014), Neutrinos from the Formation, Cooling and Black Hole Collapse of Neutron Stars, PhD. Thesis, Technische Universitat Muenchen
# time (s), <energy> (MeV), alpha, luminosity (foe/s), for nu_e, nu_e_bar, nu_mu
-0.000292413 8.37234 6.29527 9.776e+52 0 0 0 0 0 0
-0.000192413 8.39215 6.29096 9.80913e+52 2.79093 1.52622 1.99698e+45 3.45027 1.23173 1.56358e+45
-9.24129e-05 8.41233 6.28736 9.83555e+52 2.75896 1.77901 2.99799e+45 3.33127 1.47421 2.14448e+45
7.5871e-06 8.43283 6.2844 9.85555e+52 2.75523 1.97936 4.32225e+45 3.27084 1.72048 2.94265e+45
0.000107587 8.45402 6.28258 9.87153e+52 2.77682 2.10539 6.31531e+45 3.26354 1.94848 4.25167e+45
0.000207587 8.47528 6.28108 9.88214e+52 2.8027 2.213 8.50829e+45 3.26566 2.16412 5.72541e+45
0.000307587 8.49673 6.28078 9.86838e+52 2.84299 2.25397 1.15166e+46 3.29828 2.31906 7.90515e+45
0.000407587 8.51821 6.28059 9.85331e+52 2.88364 2.29262 1.45686e+46 3.33032 2.49451 1.14807e+46
0.000507587 8.54032 6.28242 9.81155e+52 2.93173 2.28346 1.85186e+46 3.35025 3.09105 4.37281e+46
0.000607587 8.56243 6.28426 9.76978e+52 2.97982 2.27429 2.24685e+46 3.37018 3.6876 7.59754e+46
0.000707587 8.58454 6.28609 9.72802e+52 3.02791 2.26513 2.64185e+46 3.39011 4.28415 1.08223e+47
0.000807587 8.60775 6.2912 9.63878e+52 3.1409 2.38702 3.68815e+46 3.44554 4.46545 1.78458e+48
0.000907587 8.6314 6.29761 9.53055e+52 3.27984 2.56134 4.99494e+46 3.51516 4.48068 4.11849e+48
0.00100759 8.65505 6.30402 9.42233e+52 3.41878 2.73565 6.30173e+46 3.58479 4.49591 6.4524e+48
0.00110759 8.67871 6.31043 9.3141e+52 3.55772 2.90997 7.60852e+46 3.65442 4.51114 8.78631e+48
0.00120759 8.70236 6.31684 9.20587e+52 3.69666 3.08428 8.91532e+46 3.72404 4.52637 1.11202e+49
0.00130759 8.72601 6.32325 9.09764e+52 3.8356 3.2586 1.02221e+47 3.79367 4.5416 1.34541e+49
0.00140759 8.74966 6.32966 8.98942e+52 3.97455 3.43291 1.15289e+47 3.86329 4.55683 1.5788e+49
0.00150759 8.77352 6.342 8.79232e+52 4.08948 3.55927 1.08767e+48 3.9969 4.54847 6.22758e+49
0.00160759 8.7974 6.35508 8.58414e+52 4.20142 3.67965 2.17961e+48 4.13848 4.53717 1.14266e+50
0.00170759 8.82128 6.36816 8.37596e+52 4.31336 3.80002 3.27155e+48 4.28007 4.52587 1.66257e+50
0.00180759 8.84517 6.38124 8.16779e+52 4.4253 3.9204 4.36349e+48 4.42165 4.51457 2.18247e+50
0.00190759 8.86905 6.39432 7.95961e+52 4.53724 4.04078 5.45543e+48 4.56323 4.50327 2.70238e+50
0.00200759 8.89293 6.4074 7.75144e+52 4.64917 4.16116 6.54737e+48 4.70481 4.49197 3.22229e+50
0.00210759 8.91682 6.42048 7.54326e+52 4.76111 4.28154 7.63931e+48 4.84639 4.48068 3.74219e+50
0.00220759 8.9407 6.43356 7.33509e+52 4.87305 4.40192 8.73125e+48 4.98798 4.46938 4.2621e+50
0.00230759 8.96458 6.44664 7.12691e+52 4.98499 4.5223 9.82319e+48 5.12956 4.45808 4.782e+50
0.00240759 8.98846 6.45972 6.91874e+52 5.09693 4.64268 1.09151e+49 5.27114 4.44678 5.30191e+50
0.00250759 9.00276 6.44842 6.93073e+52 5.21036 4.51324 1.17627e+49 5.507 4.39998 6.99682e+50
0.00260759 9.01579 6.4339 6.97173e+52 5.32398 4.35089 1.25781e+49 5.75529 4.34852 8.84655e+50
0.00270759 9.02882 6.41939 7.01273e+52 5.4376 4.18854 1.33935e+49 6.00358 4.29705 1.06963e+51
0.00280759 9.04185 6.40487 7.05373e+52 5.55122 4.0262 1.42089e+49 6.25186 4.24558 1.2546e+51
0.00290759 9.05488 6.39035 7.09473e+52 5.66484 3.86385 1.50243e+49 6.50015 4.19411 1.43957e+51
0.00300759 9.06791 6.37583 7.13574e+52 5.77846 3.7015 1.58397e+49 6.74843 4.14264 1.62455e+51
0.00310759 9.08093 6.36132 7.17674e+52 5.89208 3.53915 1.66551e+49 6.99672 4.09117 1.80952e+51
0.00320759 9.09396 6.3468 7.21774e+52 6.0057 3.3768 1.74705e+49 7.24501 4.0397 1.99449e+51
0.00330759 9.10699 6.33228 7.25874e+52 6.11932 3.21445 1.82859e+49 7.49329 3.98823 2.17947e+51
0.00340759 9.12002 6.31777 7.29974e+52 6.23294 3.0521 1.91013e+49 7.74158 3.93676 2.36444e+51
0.00350759 9.24106 6.27584 8.02855e+52 6.35271 3.03441 2.12695e+49 7.91666 3.92497 2.59476e+51
0.00360759 9.37666 6.23022 8.85015e+52 6.4733 3.03623 2.36203e+49 8.08187 3.91853 2.83119e+51
0.00370759 9.51227 6.1846 9.67175e+52 6.59389 3.03805 2.59711e+49 8.24708 3.9121 3.06763e+51
0.00380759 9.64787 6.13898 1.04934e+53 6.71448 3.03987 2.83218e+49 8.41228 3.90566 3.30407e+51
0.00390759 9.78348 6.09336 1.1315e+53 6.83507 3.0417 3.06726e+49 8.57749 3.89922 3.5405e+51
0.00400759 9.91908 6.04773 1.21366e+53 6.95566 3.04352 3.30233e+49 8.7427 3.89278 3.77694e+51
0.00410759 10.0547 6.00211 1.29582e+53 7.07626 3.04534 3.53741e+49 8.90791 3.88634 4.01337e+51
0.00420759 10.1903 5.95649 1.37798e+53 7.19685 3.04716 3.77249e+49 9.07312 3.8799 4.24981e+51
0.00430759 10.3259 5.91087 1.46014e+53 7.31744 3.04899 4.00756e+49 9.23832 3.87346 4.48625e+51
0.00440759 10.4615 5.86525 1.5423e+53 7.43803 3.05081 4.24264e+49 9.40353 3.86703 4.72268e+51
0.00450759 10.601 5.84142 1.66337e+53 7.57432 3.10469 5.11652e+49 9.50348 3.83346 4.88288e+51
0.00460759 10.741 5.82073 1.79004e+53 7.71288 3.16608 6.08242e+49 9.59403 3.79599 5.0321e+51
0.00470759 10.8811 5.80004 1.91672e+53 7.85143 3.22747 7.04831e+49 9.68458 3.75853 5.18131e+51
0.00480759 11.0211 5.77934 2.04339e+53 7.98999 3.28885 8.0142e+49 9.77513 3.72106 5.33053e+51
0.00490759 11.1612 5.75865 2.17007e+53 8.12854 3.35024 8.98009e+49 9.86568 3.68359 5.47975e+51
0.00500759 11.3012 5.73796 2.29674e+53 8.26709 3.41162 9.94598e+49 9.95623 3.64612 5.62897e+51
0.00510759 11.4413 5.71727 2.42342e+53 8.40565 3.47301 1.09119e+50 10.0468 3.60865 5.77818e+51
0.00520759 11.5813 5.69658 2.55009e+53 8.5442 3.53439 1.18778e+50 10.1373 3.57118 5.9274e+51
0.00530759 11.7214 5.67589 2.67677e+53 8.68276 3.59578 1.28437e+50 10.2279 3.53371 6.07662e+51
0.00540759 11.8614 5.6552 2.80344e+53 8.82131 3.65716 1.38095e+50 10.3184 3.49624 6.22583e+51
0.00550759 11.9367 5.65172 2.87443e+53 8.90334 3.68708 1.59309e+50 10.3715 3.46296 6.32092e+51
0.00560759 12.0023 5.65085 2.93701e+53 8.97685 3.71226 1.82265e+50 10.419 3.4303 6.40784e+51
0.00570759 12.0678 5.64997 2.99959e+53 9.05035 3.73743 2.05222e+50 10.4665 3.39764 6.49476e+51
0.00580759 12.1333 5.6491 3.06217e+53 9.12386 3.7626 2.28178e+50 10.514 3.36499 6.58168e+51
0.00590759 12.1989 5.64823 3.12475e+53 9.19736 3.78777 2.51135e+50 10.5615 3.33233 6.6686e+51
0.00600759 12.2644 5.64735 3.18733e+53 9.27086 3.81294 2.74091e+50 10.6089 3.29967 6.75552e+51
0.00610759 12.3299 5.64648 3.24991e+53 9.34437 3.83812 2.97048e+50 10.6564 3.26702 6.84245e+51
0.00620759 12.3954 5.6456 3.31249e+53 9.41787 3.86329 3.20004e+50 10.7039 3.23436 6.92937e+51
0.00630759 12.461 5.64473 3.37507e+53 9.49138 3.88846 3.42961e+50 10.7514 3.2017 7.01629e+51
0.00640759 12.5265 5.64385 3.43765e+53 9.56488 3.91363 3.65917e+50 10.7988 3.16905 7.10321e+51
0.00650759 12.5447 5.63782 3.43794e+53 9.60687 3.9168 4.0334e+50 10.8318 3.15089 7.19463e+51
0.00660759 12.554 5.6308 3.42637e+53 9.64285 3.91578 4.43517e+50 10.862 3.13549 7.2869e+51
0.00670759 12.5632 5.62379 3.41479e+53 9.67883 3.91476 4.83695e+50 10.8922 3.1201 7.37918e+51
0.00680759 12.5724 5.61677 3.40322e+53 9.71481 3.91374 5.23872e+50 10.9224 3.1047 7.47145e+51
0.00690759 12.5816 5.60975 3.39165e+53 9.75079 3.91272 5.64049e+50 10.9526 3.08931 7.56373e+51
0.00700759 12.5909 5.60274 3.38007e+53 9.78677 3.9117 6.04226e+50 10.9828 3.07391 7.656e+51
0.00710759 12.6001 5.59572 3.3685e+53 9.82275 3.91068 6.44404e+50 11.013 3.05852 7.74828e+51
0.00720759 12.6093 5.58871 3.35692e+53 9.85874 3.90966 6.84581e+50 11.0432 3.04312 7.84055e+51
0.00730759 12.6185 5.58169 3.34535e+53 9.89472 3.90864 7.24758e+50 11.0734 3.02773 7.93283e+51
0.00740759 12.6278 5.57467 3.33378e+53 9.9307 3.90762 7.64935e+50 11.1036 3.01233 8.02511e+51
0.00750759 12.6151 5.55892 3.29825e+53 9.95701 3.90698 8.21178e+50 11.1336 3.00719 8.144e+51
0.00760759 12.5981 5.54141 3.25794e+53 9.98139 3.90641 8.80636e+50 11.1635 3.00409 8.26822e+51
0.00770759 12.5811 5.52391 3.21763e+53 10.0058 3.90585 9.40093e+50 11.1933 3.001 8.39245e+51
0.00780759 12.5641 5.50641 3.17731e+53 10.0301 3.90528 9.99551e+50 11.2232 2.99791 8.51667e+51
0.00790759 12.547 5.4889 3.137e+53 10.0545 3.90471 1.05901e+51 11.2531 2.99481 8.64089e+51
0.00800759 12.53 5.4714 3.09668e+53 10.0789 3.90415 1.11847e+51 11.283 2.99172 8.76511e+51
0.00810759 12.513 5.45389 3.05637e+53 10.1033 3.90358 1.17792e+51 11.3129 2.98863 8.88934e+51
0.00820759 12.496 5.43639 3.01605e+53 10.1277 3.90302 1.23738e+51 11.3428 2.98553 9.01356e+51
0.00830759 12.479 5.41889 2.97574e+53 10.152 3.90245 1.29684e+51 11.3726 2.98244 9.13778e+51
0.00840759 12.4619 5.40138 2.93542e+53 10.1764 3.90189 1.3563e+51 11.4025 2.97935 9.26201e+51
0.00850759 12.4361 5.3855 2.89685e+53 10.1981 3.90507 1.43323e+51 11.4335 2.98023 9.4115e+51
0.00860759 12.4082 5.37003 2.8587e+53 10.2192 3.90919 1.51451e+51 11.4647 2.9821 9.56728e+51
0.00870759 12.3802 5.35456 2.82056e+53 10.2402 3.9133 1.59579e+51 11.4959 2.98397 9.72306e+51
0.00880759 12.3522 5.33908 2.78241e+53 10.2613 3.91742 1.67707e+51 11.5271 2.98583 9.87884e+51
0.00890759 12.3242 5.32361 2.74426e+53 10.2823 3.92153 1.75835e+51 11.5584 2.9877 1.00346e+52
0.00900759 12.2962 5.30814 2.70612e+53 10.3034 3.92565 1.83963e+51 11.5896 2.98957 1.01904e+52
0.00910759 12.2683 5.29266 2.66797e+53 10.3244 3.92977 1.92091e+51 11.6208 2.99144 1.03462e+52
0.00920759 12.2403 5.27719 2.62983e+53 10.3455 3.93388 2.00219e+51 11.652 2.99331 1.0502e+52
0.00930759 12.2123 5.26172 2.59168e+53 10.3665 3.938 2.08347e+51 11.6832 2.99518 1.06577e+52
0.00940759 12.1843 5.24624 2.55353e+53 10.3876 3.94211 2.16475e+51 11.7145 2.99705 1.08135e+52
0.00950759 12.1506 5.23667 2.51872e+53 10.4012 3.94922 2.25853e+51 11.7418 2.99962 1.0969e+52
0.00960759 12.1153 5.2287 2.48482e+53 10.4129 3.95715 2.35572e+51 11.7681 3.00238 1.11245e+52
0.00970759 12.08 5.22073 2.45091e+53 10.4246 3.96508 2.45291e+51 11.7944 3.00514 1.12799e+52
0.00980759 12.0447 5.21276 2.41701e+53 10.4362 3.973 2.55011e+51 11.8206 3.0079 1.14354e+52
0.00990759 12.0094 5.2048 2.3831e+53 10.4479 3.98093 2.6473e+51 11.8469 3.01066 1.15908e+52
0.0100076 11.9742 5.19683 2.3492e+53 10.4595 3.98886 2.74449e+51 11.8732 3.01342 1.17463e+52
0.0101076 11.9389 5.18886 2.31529e+53 10.4712 3.99678 2.84168e+51 11.8995 3.01618 1.19017e+52
0.0102076 11.9036 5.1809 2.28139e+53 10.4828 4.00471 2.93888e+51 11.9258 3.01893 1.20572e+52
0.0103076 11.8683 5.17293 2.24748e+53 10.4945 4.01264 3.03607e+51 11.952 3.02169 1.22126e+52
0.0104076 11.833 5.16496 2.21358e+53 10.5062 4.02056 3.13326e+51 11.9783 3.02445 1.23681e+52
0.0105076 11.7977 5.16154 2.1838e+53 10.516 4.02912 3.2448e+51 12.0011 3.02763 1.2525e+52
0.0106076 11.7624 5.15958 2.15533e+53 10.5254 4.03788 3.36092e+51 12.0227 3.03093 1.26824e+52
0.0107076 11.727 5.15761 2.12686e+53 10.5347 4.04664 3.47704e+51 12.0444 3.03424 1.28397e+52
0.0108076 11.6917 5.15565 2.0984e+53 10.544 4.0554 3.59316e+51 12.066 3.03754 1.29971e+52
0.0109076 11.6564 5.15368 2.06993e+53 10.5533 4.06416 3.70928e+51 12.0877 3.04085 1.31545e+52
0.0110076 11.6211 5.15171 2.04146e+53 10.5626 4.07292 3.8254e+51 12.1093 3.04416 1.33118e+52
0.0111076 11.5857 5.14975 2.013e+53 10.5719 4.08168 3.94151e+51 12.1309 3.04746 1.34692e+52
0.0112076 11.5504 5.14778 1.98453e+53 10.5812 4.09044 4.05763e+51 12.1526 3.05077 1.36266e+52
0.0113076 11.5151 5.14582 1.95607e+53 10.5906 4.0992 4.17375e+51 12.1742 3.05407 1.3784e+52
0.0114076 11.4798 5.14385 1.9276e+53 10.5999 4.10795 4.28987e+51 12.1959 3.05738 1.39413e+52
0.0115076 11.4476 5.14263 1.90454e+53 10.6098 4.11467 4.41637e+51 12.2158 3.06091 1.41023e+52
0.0116076 11.4165 5.14169 1.88351e+53 10.62 4.12062 4.54675e+51 12.2351 3.06453 1.42647e+52
0.0117076 11.3855 5.14074 1.86248e+53 10.6302 4.12656 4.67712e+51 12.2544 3.06816 1.44271e+52
0.0118076 11.3545 5.1398 1.84144e+53 10.6404 4.13251 4.8075e+51 12.2737 3.07178 1.45894e+52
0.0119076 11.3235 5.13886 1.82041e+53 10.6506 4.13846 4.93787e+51 12.2929 3.0754 1.47518e+52
0.0120076 11.2925 5.13791 1.79938e+53 10.6608 4.14441 5.06825e+51 12.3122 3.07902 1.49142e+52
0.0121076 11.2614 5.13697 1.77834e+53 10.671 4.15036 5.19862e+51 12.3315 3.08264 1.50765e+52
0.0122076 11.2304 5.13603 1.75731e+53 10.6812 4.15631 5.329e+51 12.3508 3.08626 1.52389e+52
0.0123076 11.1994 5.13508 1.73627e+53 10.6914 4.16225 5.45937e+51 12.3701 3.08988 1.54013e+52
0.0124076 11.1684 5.13414 1.71524e+53 10.7016 4.1682 5.58975e+51 12.3894 3.0935 1.55636e+52
0.0125076 11.1425 5.13032 1.69763e+53 10.7101 4.1736 5.72188e+51 12.4068 3.09669 1.57211e+52
0.0126076 11.1189 5.12526 1.68151e+53 10.7178 4.17876 5.85477e+51 12.4233 3.09969 1.58766e+52
0.0127076 11.0953 5.1202 1.66538e+53 10.7255 4.18391 5.98767e+51 12.4399 3.10269 1.6032e+52
0.0128076 11.0716 5.11513 1.64926e+53 10.7333 4.18907 6.12056e+51 12.4565 3.1057 1.61874e+52
0.0129076 11.048 5.11007 1.63313e+53 10.741 4.19423 6.25345e+51 12.473 3.1087 1.63428e+52
0.0130076 11.0244 5.10501 1.617e+53 10.7487 4.19938 6.38635e+51 12.4896 3.1117 1.64982e+52
0.0131076 11.0007 5.09995 1.60088e+53 10.7564 4.20454 6.51924e+51 12.5062 3.1147 1.66537e+52
0.0132076 10.9771 5.09488 1.58475e+53 10.7641 4.2097 6.65213e+51 12.5227 3.11771 1.68091e+52
0.0133076 10.9535 5.08982 1.56863e+53 10.7719 4.21485 6.78503e+51 12.5393 3.12071 1.69645e+52
0.0134076 10.9298 5.08476 1.5525e+53 10.7796 4.22001 6.91792e+51 12.5559 3.12371 1.71199e+52
0.0135076 10.9076 5.07814 1.53775e+53 10.7863 4.22309 7.04993e+51 12.5703 3.12592 1.72648e+52
0.0136076 10.8862 5.07061 1.52379e+53 10.7924 4.22494 7.18141e+51 12.5835 3.12767 1.74035e+52
0.0137076 10.8648 5.06308 1.50984e+53 10.7984 4.2268 7.31289e+51 12.5966 3.12941 1.75422e+52
0.0138076 10.8433 5.05555 1.49589e+53 10.8045 4.22866 7.44437e+51 12.6098 3.13116 1.76809e+52
0.0139076 10.8219 5.04802 1.48194e+53 10.8106 4.23051 7.57585e+51 12.623 3.1329 1.78196e+52
0.0140076 10.8005 5.04049 1.46799e+53 10.8167 4.23237 7.70734e+51 12.6361 3.13465 1.79583e+52
0.0141076 10.7791 5.03296 1.45404e+53 10.8228 4.23422 7.83882e+51 12.6493 3.13639 1.8097e+52
0.0142076 10.7576 5.02543 1.44008e+53 10.8289 4.23608 7.9703e+51 12.6625 3.13813 1.82357e+52
0.0143076 10.7362 5.0179 1.42613e+53 10.835 4.23793 8.10178e+51 12.6756 3.13988 1.83744e+52
0.0144076 10.7148 5.01037 1.41218e+53 10.8411 4.23979 8.23326e+51 12.6888 3.14162 1.85131e+52
0.0145076 10.6955 5.00652 1.3997e+53 10.8466 4.2426 8.36561e+51 12.7006 3.14336 1.86425e+52
0.0146076 10.6777 5.00524 1.38826e+53 10.8518 4.24607 8.49857e+51 12.7116 3.1451 1.87653e+52
0.0147076 10.6599 5.00395 1.37681e+53 10.857 4.24954 8.63152e+51 12.7225 3.14684 1.88881e+52
0.0148076 10.6421 5.00267 1.36537e+53 10.8622 4.25301 8.76448e+51 12.7334 3.14857 1.9011e+52
0.0149076 10.6243 5.00139 1.35392e+53 10.8674 4.25648 8.89743e+51 12.7443 3.15031 1.91338e+52
0.0150076 10.6066 5.00011 1.34247e+53 10.8726 4.25995 9.03039e+51 12.7552 3.15204 1.92566e+52
0.0151076 10.5888 4.99882 1.33103e+53 10.8777 4.26342 9.16334e+51 12.7661 3.15378 1.93794e+52
0.0152076 10.571 4.99754 1.31958e+53 10.8829 4.2669 9.2963e+51 12.777 3.15552 1.95023e+52
0.0153076 10.5532 4.99626 1.30814e+53 10.8881 4.27037 9.42925e+51 12.788 3.15725 1.96251e+52
0.0154076 10.5354 4.99498 1.29669e+53 10.8933 4.27384 9.56221e+51 12.7989 3.15899 1.97479e+52
0.0155076 10.5173 4.99446 1.28575e+53 10.8984 4.27716 9.69743e+51 12.8084 3.1607 1.98639e+52
0.0156076 10.499 4.99458 1.27522e+53 10.9033 4.28037 9.83453e+51 12.8169 3.16238 1.99742e+52
0.0157076 10.4806 4.99469 1.2647e+53 10.9083 4.28357 9.97162e+51 12.8254 3.16406 2.00845e+52
0.0158076 10.4623 4.99481 1.25417e+53 10.9132 4.28678 1.01087e+52 12.8338 3.16574 2.01948e+52
0.0159076 10.444 4.99493 1.24365e+53 10.9182 4.28998 1.02458e+52 12.8423 3.16742 2.03051e+52
0.0160076 10.4256 4.99504 1.23312e+53 10.9231 4.29319 1.03829e+52 12.8507 3.1691 2.04154e+52
0.0161076 10.4073 4.99516 1.2226e+53 10.9281 4.29639 1.052e+52 12.8592 3.17078 2.05257e+52
0.0162076 10.389 4.99528 1.21207e+53 10.933 4.2996 1.06571e+52 12.8677 3.17246 2.0636e+52
0.0163076 10.3706 4.99539 1.20154e+53 10.938 4.3028 1.07942e+52 12.8761 3.17414 2.07463e+52
0.0164076 10.3523 4.99551 1.19102e+53 10.9429 4.30601 1.09313e+52 12.8846 3.17582 2.08566e+52
0.0165076 10.3353 4.99445 1.18115e+53 10.9482 4.30781 1.10683e+52 12.8917 3.17776 2.09628e+52
0.0166076 10.3193 4.99239 1.17182e+53 10.9537 4.30843 1.12052e+52 12.8975 3.17993 2.10655e+52
0.0167076 10.3033 4.99034 1.1625e+53 10.9592 4.30904 1.13421e+52 12.9034 3.1821 2.11682e+52
0.0168076 10.2873 4.98828 1.15318e+53 10.9647 4.30966 1.1479e+52 12.9093 3.18427 2.12709e+52
0.0169076 10.2714 4.98623 1.14386e+53 10.9702 4.31028 1.16159e+52 12.9152 3.18643 2.13737e+52
0.0170076 10.2554 4.98417 1.13454e+53 10.9757 4.3109 1.17528e+52 12.9211 3.1886 2.14764e+52
0.0171076 10.2394 4.98212 1.12522e+53 10.9812 4.31152 1.18897e+52 12.927 3.19077 2.15791e+52
0.0172076 10.2234 4.98006 1.1159e+53 10.9867 4.31213 1.20266e+52 12.9329 3.19293 2.16818e+52
0.0173076 10.2075 4.97801 1.10657e+53 10.9922 4.31275 1.21635e+52 12.9388 3.1951 2.17845e+52
0.0174076 10.1915 4.97595 1.09725e+53 10.9977 4.31337 1.23004e+52 12.9446 3.19727 2.18873e+52
0.0175076 10.1776 4.97195 1.08895e+53 11.0036 4.31338 1.24349e+52 12.9509 3.19857 2.1984e+52
0.0176076 10.1658 4.96615 1.08158e+53 11.0098 4.31282 1.25673e+52 12.9574 3.19906 2.20752e+52
0.0177076 10.1539 4.96034 1.07422e+53 11.016 4.31227 1.26996e+52 12.964 3.19955 2.21664e+52
0.0178076 10.1421 4.95454 1.06685e+53 11.0222 4.31171 1.28319e+52 12.9705 3.20004 2.22576e+52
0.0179076 10.1302 4.94873 1.05949e+53 11.0285 4.31116 1.29642e+52 12.9771 3.20054 2.23488e+52
0.0180076 10.1183 4.94293 1.05212e+53 11.0347 4.31061 1.30965e+52 12.9836 3.20103 2.244e+52
0.0181076 10.1065 4.93712 1.04476e+53 11.0409 4.31005 1.32288e+52 12.9902 3.20152 2.25312e+52
0.0182076 10.0946 4.93132 1.0374e+53 11.0471 4.3095 1.33612e+52 12.9967 3.20201 2.26224e+52
0.0183076 10.0828 4.92551 1.03003e+53 11.0533 4.30894 1.34935e+52 13.0033 3.2025 2.27136e+52
0.0184076 10.0709 4.91971 1.02267e+53 11.0596 4.30839 1.36258e+52 13.0098 3.203 2.28048e+52
0.0185076 10.0587 4.91124 1.0156e+53 11.0656 4.30775 1.37556e+52 13.0157 3.20331 2.28876e+52
0.0186076 10.0462 4.89994 1.00885e+53 11.0716 4.30702 1.38828e+52 13.0209 3.20342 2.29617e+52
0.0187076 10.0337 4.88864 1.0021e+53 11.0776 4.30629 1.40099e+52 13.0261 3.20354 2.30357e+52
0.0188076 10.0212 4.87734 9.95344e+52 11.0835 4.30556 1.4137e+52 13.0313 3.20366 2.31098e+52
0.0189076 10.0087 4.86603 9.88593e+52 11.0895 4.30483 1.42642e+52 13.0365 3.20377 2.31838e+52
0.0190076 9.99624 4.85473 9.81841e+52 11.0954 4.3041 1.43913e+52 13.0417 3.20389 2.32579e+52
0.0191076 9.98374 4.84343 9.7509e+52 11.1014 4.30337 1.45185e+52 13.0469 3.20401 2.33319e+52
0.0192076 9.97125 4.83213 9.68339e+52 11.1073 4.30263 1.46456e+52 13.0521 3.20412 2.34059e+52
0.0193076 9.95875 4.82083 9.61587e+52 11.1133 4.3019 1.47727e+52 13.0573 3.20424 2.348e+52
0.0194076 9.94625 4.80952 9.54836e+52 11.1193 4.30117 1.48999e+52 13.0625 3.20436 2.3554e+52
0.0195076 9.93422 4.80094 9.48523e+52 11.1243 4.30001 1.50226e+52 13.0658 3.20481 2.36204e+52
0.0196076 9.92278 4.79585 9.42772e+52 11.1281 4.29828 1.51397e+52 13.0666 3.2057 2.36771e+52
0.0197076 9.91133 4.79075 9.37021e+52 11.132 4.29656 1.52568e+52 13.0674 3.20658 2.37337e+52
0.0198076 9.89989 4.78566 9.3127e+52 11.1358 4.29484 1.53739e+52 13.0681 3.20747 2.37903e+52
0.0199076 9.88845 4.78056 9.2552e+52 11.1397 4.29311 1.5491e+52 13.0689 3.20835 2.38469e+52
0.0200076 9.877 4.77547 9.19769e+52 11.1436 4.29139 1.56082e+52 13.0697 3.20924 2.39036e+52
0.0201076 9.86556 4.77037 9.14018e+52 11.1474 4.28966 1.57253e+52 13.0705 3.21013 2.39602e+52
0.0202076 9.85411 4.76528 9.08267e+52 11.1513 4.28794 1.58424e+52 13.0713 3.21101 2.40168e+52
0.0203076 9.84267 4.76018 9.02516e+52 11.1551 4.28622 1.59595e+52 13.0721 3.2119 2.40734e+52
0.0204076 9.83123 4.75508 8.96765e+52 11.159 4.28449 1.60766e+52 13.0729 3.21279 2.41301e+52
0.0205076 9.81832 4.75496 8.90895e+52 11.1633 4.284 1.61967e+52 13.075 3.21319 2.41877e+52
0.0206076 9.80332 4.76193 8.84856e+52 11.1683 4.28528 1.6321e+52 13.0792 3.21292 2.42469e+52
