# If you use this flux, cite http://wwwmpa.mpa-garching.mpg.de/ccsnarchive/data/Huedepohl2014_phd_thesis/, 
# Huedepohl, L. (2014), Neutrinos from the Formation, Cooling and Black Hole Collapse of Neutron Stars, PhD. Thesis, Technische Universitat Muenchen
# time (s), <energy> (MeV), alpha, luminosity (foe/s), for nu_e, nu_e_bar, nu_mu
-0.000484296 8.49217 6.09273 9.73908e+52 0 0 0 0 0 0
-0.000384296 8.51287 6.08819 9.78468e+52 3.11674 0.830781 1.04849e+45 4.57192 0.787141 9.93329e+44
-0.000284296 8.53396 6.0842 9.8243e+52 2.87474 1.24348 1.43533e+45 3.86221 0.721388 1.08371e+45
-0.000184296 8.55542 6.08082 9.85713e+52 2.79972 1.56125 2.15543e+45 3.55887 0.816005 1.24781e+45
-8.42964e-05 8.57727 6.07809 9.88257e+52 2.77797 1.81147 3.21479e+45 3.39887 0.955256 1.4852e+45
1.57036e-05 8.59937 6.07608 9.91118e+52 2.78524 2.01029 4.6897e+45 3.31155 1.11346 1.8113e+45
0.000115704 8.62234 6.075 9.92564e+52 2.8121 2.15635 6.69301e+45 3.2697 1.27402 2.24392e+45
0.000215704 8.64546 6.07474 9.92372e+52 2.85166 2.25075 9.24029e+45 3.25624 1.42299 2.78101e+45
0.000315704 8.66882 6.07526 9.91078e+52 2.89907 2.30052 1.23998e+46 3.26135 1.55365 3.42691e+45
0.000415704 8.69231 6.07643 9.88713e+52 2.95087 2.31626 1.61445e+46 3.27794 1.66632 4.20551e+45
0.000515704 8.71609 6.07829 9.85278e+52 3.00462 2.3109 2.03414e+46 3.30256 2.49144 8.142e+45
0.000615704 8.74031 6.08102 9.80693e+52 3.05795 2.29503 2.4814e+46 3.22444 3.59979 2.67778e+46
0.000715704 8.76501 6.08467 9.74819e+52 3.10884 2.27457 2.94066e+46 3.29291 4.15791 8.57956e+46
0.000815704 8.79007 6.08919 9.67612e+52 3.15668 2.25194 3.40285e+46 3.42331 4.34184 2.23117e+47
0.000915704 8.81542 6.09456 9.58983e+52 3.20146 2.22841 3.8655e+46 3.4831 4.2989 5.1349e+47
0.0010157 8.84103 6.10074 9.48881e+52 3.24321 2.2058 4.32903e+46 3.56982 4.25171 1.12136e+48
0.0011157 8.86682 6.10764 9.37336e+52 3.28182 2.18586 4.79326e+46 3.66525 4.26916 2.30752e+48
0.0012157 8.89292 6.11522 9.24403e+52 3.31895 2.17218 5.27702e+46 3.76136 4.3431 4.4954e+48
0.0013157 8.91933 6.12362 9.09829e+52 3.53329 2.43853 6.96331e+46 3.82991 4.43033 8.86299e+48
0.0014157 8.94593 6.13262 8.93802e+52 4.02929 3.40769 1.21751e+47 3.89776 4.50346 1.62754e+49
0.0015157 8.97277 6.14219 8.7608e+52 4.29935 4.50297 2.42518e+47 3.9642 4.63667 2.931e+49
0.0016157 9.00008 6.15268 8.56703e+52 4.40617 4.92142 4.86821e+47 4.04283 4.76337 5.05595e+49
0.0017157 9.02838 6.16558 8.35593e+52 4.4555 5.03892 9.85252e+47 4.14281 4.85654 8.25172e+49
0.0018157 9.05764 6.18113 8.13414e+52 4.49819 5.07171 1.78351e+48 4.25637 4.8837 1.20891e+50
0.0019157 9.08781 6.19931 7.9027e+52 4.5418 5.04992 2.89037e+48 4.38227 4.84071 1.64999e+50
0.0020157 9.11881 6.22031 7.65997e+52 4.63304 5.03677 4.57973e+48 4.52369 4.7062 2.15131e+50
0.0021157 9.1484 6.23809 7.41672e+52 4.7506 4.97871 6.35913e+48 4.67683 4.55518 2.6749e+50
0.0022157 9.17604 6.25156 7.17475e+52 4.89024 4.87828 8.17946e+48 4.84206 4.38923 3.22154e+50
0.0023157 9.19713 6.25089 6.94537e+52 5.04674 4.71397 9.79803e+48 5.03165 4.20457 3.81519e+50
0.0024157 9.21066 6.23699 6.73849e+52 5.20454 4.52737 1.12401e+49 5.24072 4.02258 4.46851e+50
0.0025157 9.21794 6.21376 6.55493e+52 5.36157 4.32929 1.25596e+49 5.46567 3.84668 5.18025e+50
0.0026157 9.21624 6.1806 6.41574e+52 5.51326 4.13031 1.37545e+49 5.71303 3.68842 5.99712e+50
0.0027157 9.21012 6.15031 6.34335e+52 5.65481 3.94586 1.48985e+49 5.97916 3.55646 6.96543e+50
0.0028157 9.20301 6.12194 6.29803e+52 5.79236 3.76753 1.60257e+49 6.25189 3.43504 7.99342e+50
0.0029157 9.2045 6.11474 6.37887e+52 5.91339 3.62151 1.71387e+49 6.53862 3.36076 9.27111e+50
0.0030157 9.20854 6.10934 6.47456e+52 6.03301 3.47883 1.82543e+49 6.82519 3.29014 1.05732e+51
0.0031157 9.23922 6.1228 6.72568e+52 6.13798 3.37101 1.9397e+49 7.11009 3.25763 1.21302e+51
0.0032157 9.27545 6.13541 7.00214e+52 6.24164 3.26741 2.05526e+49 7.39349 3.2279 1.37187e+51
0.0033157 9.34901 6.14226 7.44923e+52 6.33653 3.19225 2.17947e+49 7.66677 3.21681 1.552e+51
0.0034157 9.43011 6.14496 7.93326e+52 6.43098 3.12164 2.30749e+49 7.93712 3.2069 1.73547e+51
0.0035157 9.54765 6.12766 8.59584e+52 6.52339 3.0731 2.45396e+49 8.19331 3.20269 1.93508e+51
0.0036157 9.67266 6.10578 9.30628e+52 6.61689 3.02947 2.60875e+49 8.44556 3.19787 2.13761e+51
0.0037157 9.82518 6.067 1.01931e+53 6.71443 3.00398 2.79414e+49 8.68328 3.19079 2.35091e+51
0.0038157 9.98324 6.02627 1.11353e+53 6.81463 2.98379 2.99438e+49 8.91639 3.18205 2.56608e+51
0.0039157 10.1575 5.97985 1.22389e+53 6.92263 2.97904 3.23787e+49 9.13604 3.16845 2.78666e+51
0.0040157 10.3346 5.93317 1.33989e+53 7.03421 2.97978 3.50497e+49 9.35053 3.15275 3.0076e+51
0.0041157 10.5187 5.8859 1.4692e+53 7.15423 2.99349 3.82781e+49 9.55286 3.13208 3.22939e+51
0.0042157 10.7028 5.84078 1.60331e+53 7.27757 3.01237 4.18525e+49 9.74965 3.10915 3.44967e+51
0.0043157 10.8868 5.79982 1.74678e+53 7.40736 3.0413 4.60998e+49 9.93567 3.08183 3.66702e+51
0.0044157 11.0675 5.76245 1.89341e+53 7.53916 3.07482 5.09024e+49 10.1151 3.05213 3.88029e+51
0.0045157 11.243 5.73086 2.04518e+53 7.67422 3.11579 5.66044e+49 10.2839 3.01856 4.08694e+51
0.0046157 11.4185 5.69928 2.19694e+53 7.80928 3.15675 6.23065e+49 10.4527 2.985 4.2936e+51
0.0047157 11.5794 5.67653 2.34784e+53 7.94311 3.20415 6.98599e+49 10.6044 2.94699 4.4849e+51
0.0048157 11.7388 5.65467 2.49865e+53 8.07681 3.25219 7.75982e+49 10.7544 2.90853 4.67467e+51
0.0049157 11.8905 5.63572 2.64472e+53 8.20689 3.30031 8.63009e+49 10.8971 2.86894 4.85635e+51
0.0050157 12.0303 5.62122 2.78358e+53 8.33146 3.34852 9.64688e+49 11.0288 2.82761 5.02572e+51
0.0051157 12.1701 5.60671 2.92244e+53 8.45604 3.39673 1.06637e+50 11.1604 2.78629 5.19508e+51
0.0052157 12.2917 5.5966 3.04329e+53 8.56814 3.43993 1.19243e+50 11.2766 2.74433 5.34596e+51
0.0053157 12.411 5.58707 3.16179e+53 8.67862 3.48248 1.32168e+50 11.3907 2.7023 5.49442e+51
0.0054157 12.5227 5.57873 3.27101e+53 8.78395 3.52275 1.46296e+50 11.499 2.66064 5.63575e+51
0.0055157 12.6218 5.57238 3.36462e+53 8.8806 3.5592 1.62452e+50 11.5972 2.61962 5.76507e+51
0.0056157 12.7208 5.56603 3.45822e+53 8.97724 3.59565 1.78609e+50 11.6955 2.57861 5.8944e+51
0.0057157 12.8035 5.56096 3.52954e+53 9.06268 3.62715 1.9789e+50 11.7816 2.53924 6.0096e+51
0.0058157 12.8834 5.5561 3.59724e+53 9.14629 3.65784 2.1768e+50 11.8656 2.50014 6.12251e+51
0.0059157 12.9573 5.55126 3.65632e+53 9.22618 3.68643 2.38871e+50 11.9455 2.46189 6.23083e+51
0.0060157 13.0198 5.54644 3.69925e+53 9.29911 3.71106 2.62688e+50 12.0173 2.42523 6.33053e+51
0.0061157 13.0823 5.54162 3.74217e+53 9.37203 3.73569 2.86506e+50 12.0892 2.38858 6.43024e+51
0.0062157 13.1318 5.53616 3.76664e+53 9.43542 3.7546 3.13731e+50 12.1524 2.35429 6.52087e+51
0.0063157 13.1787 5.53059 3.78748e+53 9.49694 3.77238 3.41626e+50 12.2139 2.32047 6.60971e+51
0.0064157 13.2209 5.52447 3.80201e+53 9.55652 3.78914 3.71157e+50 12.2723 2.28767 6.69578e+51
0.0065157 13.2537 5.51726 3.80405e+53 9.61226 3.80388 4.03926e+50 12.3245 2.25687 6.77636e+51
0.0066157 13.2865 5.51006 3.80609e+53 9.668 3.81863 4.36696e+50 12.3768 2.22606 6.85694e+51
0.0067157 13.3087 5.50156 3.79557e+53 9.71551 3.82901 4.72895e+50 12.4219 2.19773 6.9321e+51
0.0068157 13.3287 5.49278 3.7823e+53 9.76121 3.83844 5.09845e+50 12.4654 2.16993 7.00608e+51
0.0069157 13.3451 5.48313 3.76508e+53 9.80372 3.84558 5.47949e+50 12.5066 2.14314 7.0783e+51
0.0070157 13.3534 5.47146 3.73871e+53 9.83883 3.84742 5.88727e+50 12.5425 2.11869 7.14645e+51
0.0071157 13.3616 5.45979 3.71234e+53 9.87394 3.84925 6.29505e+50 12.5783 2.09424 7.2146e+51
0.0072157 13.3618 5.44635 3.6781e+53 9.90461 3.8477 6.73237e+50 12.6082 2.07221 7.27614e+51
0.0073157 13.3597 5.43241 3.64158e+53 9.93399 3.84516 7.17824e+50 12.6364 2.05089 7.33575e+51
0.0074157 13.355 5.41759 3.6026e+53 9.96159 3.84213 7.63233e+50 12.6625 2.03037 7.39284e+51
0.0075157 13.343 5.40026 3.55649e+53 9.98403 3.83768 8.11012e+50 12.6823 2.01216 7.44264e+51
0.0076157 13.331 5.38293 3.51038e+53 10.0065 3.83323 8.58792e+50 12.7022 1.99396 7.49244e+51
0.0077157 13.3131 5.36344 3.46061e+53 10.0248 3.82861 9.08852e+50 12.7167 1.97869 7.53921e+51
0.0078157 13.293 5.34318 3.40953e+53 10.0417 3.82392 9.59731e+50 12.7293 1.96448 7.58489e+51
0.0079157 13.2717 5.32215 3.35788e+53 10.0579 3.81955 1.01136e+51 12.7412 1.95126 7.63119e+51
0.0080157 13.2455 5.29827 3.30409e+53 10.0717 3.81643 1.06582e+51 12.7503 1.94181 7.67988e+51
0.0081157 13.2193 5.27439 3.2503e+53 10.0855 3.81331 1.12029e+51 12.7594 1.93236 7.72856e+51
0.0082157 13.1905 5.25027 3.19722e+53 10.1012 3.81213 1.17893e+51 12.7679 1.92584 7.78177e+51
0.0083157 13.1604 5.22603 3.14445e+53 10.1176 3.81183 1.23945e+51 12.7762 1.92062 7.83702e+51
0.0084157 13.1298 5.20221 3.09219e+53 10.1351 3.81174 1.30135e+51 12.7846 1.91592 7.89354e+51
0.0085157 13.0966 5.18026 3.04222e+53 10.1575 3.81265 1.36954e+51 12.7936 1.91352 7.95584e+51
0.0086157 13.0634 5.15831 2.99224e+53 10.1799 3.81356 1.43773e+51 12.8027 1.91111 8.01814e+51
0.0087157 13.0308 5.13863 2.94534e+53 10.2035 3.81437 1.51019e+51 12.8137 1.91026 8.08559e+51
0.0088157 12.9985 5.12005 2.89991e+53 10.2276 3.81513 1.5847e+51 12.8256 1.91015 8.15551e+51
0.0089157 12.9661 5.1016 2.8548e+53 10.2518 3.81629 1.6601e+51 12.838 1.91021 8.22609e+51
0.0090157 12.9325 5.08395 2.81172e+53 10.2758 3.82003 1.74124e+51 12.853 1.91141 8.301e+51
0.0091157 12.899 5.0663 2.76864e+53 10.2998 3.82378 1.82239e+51 12.868 1.91261 8.37592e+51
0.0092157 12.8655 5.05009 2.72728e+53 10.3252 3.82842 1.90775e+51 12.8847 1.91416 8.45244e+51
0.0093157 12.8321 5.03474 2.68694e+53 10.3513 3.8336 1.99561e+51 12.9025 1.91593 8.52992e+51
0.0094157 12.7985 5.0197 2.64697e+53 10.377 3.83897 2.08392e+51 12.9204 1.91767 8.60744e+51
0.0095157 12.7635 5.00693 2.6096e+53 10.3989 3.84576 2.17542e+51 12.939 1.9192 8.68514e+51
0.0096157 12.7285 4.99417 2.57222e+53 10.4208 3.85254 2.26693e+51 12.9577 1.92073 8.76285e+51
0.0097157 12.6945 4.98219 2.53616e+53 10.4417 3.8602 2.36101e+51 12.9771 1.92213 8.84046e+51
0.0098157 12.6611 4.97071 2.5009e+53 10.4618 3.8684 2.4567e+51 12.997 1.92345 8.91801e+51
0.0099157 12.6274 4.95914 2.4657e+53 10.4814 3.87667 2.55261e+51 13.0168 1.92471 8.99542e+51
0.0100157 12.5914 4.94691 2.43101e+53 10.4967 3.88548 2.6503e+51 13.0361 1.92554 9.07171e+51
0.0101157 12.5553 4.93468 2.39632e+53 10.512 3.8943 2.74799e+51 13.0553 1.92638 9.148e+51
0.0102157 12.5199 4.92348 2.36286e+53 10.5213 3.90641 2.84494e+51 13.0746 1.92717 9.22506e+51
0.0103157 12.4848 4.91293 2.33019e+53 10.5267 3.92068 2.94142e+51 13.0939 1.92794 9.30261e+51
0.0104157 12.4495 4.90241 2.29754e+53 10.5318 3.93501 3.03804e+51 13.1131 1.92871 9.38023e+51
0.0105157 12.4124 4.89222 2.26524e+53 10.5322 3.95049 3.13721e+51 13.1318 1.92943 9.4589e+51
0.0106157 12.3753 4.88203 2.23294e+53 10.5325 3.96596 3.23638e+51 13.1505 1.93016 9.53758e+51
0.0107157 12.3389 4.87348 2.20191e+53 10.5349 3.98086 3.34017e+51 13.1694 1.93124 9.61844e+51
0.0108157 12.3033 4.86654 2.17211e+53 10.5393 3.99519 3.44847e+51 13.1885 1.93267 9.70143e+51
0.0109157 12.2676 4.85959 2.14232e+53 10.5436 4.00952 3.55677e+51 13.2075 1.9341 9.78442e+51
0.0110157 12.233 4.85521 2.11396e+53 10.5492 4.0256 3.67047e+51 13.2275 1.93605 9.8714e+51
0.0111157 12.1985 4.85084 2.0856e+53 10.5547 4.0417 3.78422e+51 13.2474 1.938 9.95842e+51
0.0112157 12.164 4.84696 2.05865e+53 10.5597 4.0574 3.89901e+51 13.2668 1.93983 1.00456e+52
0.0113157 12.1297 4.8436 2.03321e+53 10.5641 4.07267 4.01493e+51 13.2857 1.94153 1.0133e+52
0.0114157 12.0954 4.84023 2.00776e+53 10.5685 4.08794 4.13085e+51 13.3046 1.94323 1.02204e+52
0.0115157 12.0648 4.83746 1.9849e+53 10.5735 4.1001 4.25027e+51 13.3239 1.94532 1.03119e+52
0.0116157 12.0345 4.83473 1.96227e+53 10.5787 4.112 4.37e+51 13.3431 1.94745 1.04037e+52
0.0117157 12.0046 4.83097 1.93948e+53 10.5843 4.12233 4.49091e+51 13.3628 1.94964 1.04969e+52
0.0118157 11.9755 4.82531 1.91643e+53 10.5908 4.12985 4.61393e+51 13.3833 1.95195 1.05924e+52
0.0119157 11.9463 4.81964 1.89337e+53 10.5973 4.13736 4.73696e+51 13.4038 1.95426 1.06879e+52
0.0120157 11.9174 4.81294 1.87231e+53 10.5998 4.14708 4.85546e+51 13.4243 1.95662 1.0783e+52
0.0121157 11.8886 4.80597 1.85177e+53 10.6011 4.15737 4.97277e+51 13.4447 1.95901 1.08781e+52
0.0122157 11.8609 4.79948 1.83212e+53 10.6017 4.16854 5.08897e+51 13.4652 1.9615 1.09738e+52
0.0123157 11.836 4.79427 1.81489e+53 10.6003 4.18205 5.20221e+51 13.4857 1.96431 1.1071e+52
0.0124157 11.8112 4.78906 1.79765e+53 10.599 4.19556 5.31544e+51 13.5063 1.96711 1.11683e+52
0.0125157 11.7866 4.78338 1.77981e+53 10.5997 4.20638 5.43073e+51 13.5271 1.97019 1.12689e+52
0.0126157 11.7622 4.77751 1.76173e+53 10.6012 4.21611 5.54686e+51 13.5481 1.97338 1.13707e+52
0.0127157 11.7373 4.77135 1.74362e+53 10.6029 4.22544 5.66319e+51 13.5688 1.97654 1.14723e+52
0.0128157 11.7103 4.7636 1.72538e+53 10.6052 4.23252 5.78065e+51 13.5884 1.97956 1.1572e+52
0.0129157 11.6833 4.75585 1.70715e+53 10.6075 4.23961 5.89811e+51 13.6081 1.98258 1.16718e+52
0.0130157 11.6571 4.74791 1.6898e+53 10.6097 4.24808 6.01506e+51 13.6277 1.98573 1.17709e+52
0.0131157 11.6314 4.73983 1.67307e+53 10.6118 4.25749 6.13167e+51 13.6474 1.98896 1.18696e+52
0.0132157 11.6057 4.73184 1.65632e+53 10.6139 4.26701 6.24819e+51 13.6671 1.9922 1.19683e+52
0.0133157 11.5799 4.72578 1.63913e+53 10.6151 4.27937 6.36228e+51 13.6878 1.99582 1.20701e+52
0.0134157 11.5541 4.71973 1.62194e+53 10.6162 4.29173 6.47636e+51 13.7084 1.99945 1.21719e+52
0.0135157 11.5273 4.71375 1.60472e+53 10.6164 4.30357 6.58848e+51 13.7279 2.00275 1.22713e+52
0.0136157 11.4994 4.70786 1.58747e+53 10.6154 4.31484 6.69845e+51 13.7461 2.00569 1.23679e+52
0.0137157 11.4716 4.70197 1.57021e+53 10.6144 4.32612 6.80843e+51 13.7643 2.00864 1.24646e+52
0.0138157 11.4462 4.69543 1.55517e+53 10.6148 4.33333 6.91774e+51 13.7815 2.0115 1.25568e+52
0.0139157 11.4211 4.68881 1.54041e+53 10.6152 4.34001 7.02696e+51 13.7985 2.01434 1.26484e+52
0.0140157 11.3967 4.68275 1.52588e+53 10.6162 4.34666 7.13631e+51 13.816 2.01734 1.27403e+52
0.0141157 11.3738 4.67809 1.51195e+53 10.6185 4.35322 7.24601e+51 13.8346 2.02075 1.28333e+52
0.0142157 11.3509 4.67342 1.49802e+53 10.6208 4.35978 7.3557e+51 13.8531 2.02416 1.29262e+52
0.0143157 11.3248 4.66802 1.48264e+53 10.6219 4.36729 7.46287e+51 13.87 2.02701 1.30144e+52
0.0144157 11.2973 4.66228 1.46659e+53 10.6224 4.37523 7.56889e+51 13.8861 2.0296 1.31004e+52
0.0145157 11.2699 4.65654 1.45065e+53 10.6229 4.38321 7.67492e+51 13.9019 2.03216 1.31857e+52
0.0146157 11.2427 4.65086 1.4359e+53 10.6232 4.39162 7.78097e+51 13.9154 2.03439 1.32646e+52
0.0147157 11.2154 4.64519 1.42115e+53 10.6234 4.40002 7.88702e+51 13.9288 2.03662 1.33434e+52
0.0148157 11.1906 4.64094 1.40769e+53 10.6245 4.40861 7.99592e+51 13.9426 2.03917 1.34235e+52
0.0149157 11.1682 4.63819 1.39558e+53 10.6265 4.41737 8.1078e+51 13.9566 2.04206 1.35047e+52
0.0150157 11.1459 4.63544 1.38347e+53 10.6285 4.42614 8.21967e+51 13.9706 2.04494 1.3586e+52
0.0151157 11.1213 4.62993 1.36993e+53 10.6314 4.42898 8.33366e+51 13.9836 2.04715 1.36648e+52
0.0152157 11.0964 4.62408 1.35622e+53 10.6344 4.4311 8.4479e+51 13.9966 2.04928 1.37433e+52
0.0153157 11.0709 4.61757 1.34239e+53 10.6378 4.43198 8.56232e+51 14.0091 2.05119 1.38196e+52
0.0154157 11.044 4.60948 1.32829e+53 10.6423 4.42983 8.67715e+51 14.0208 2.05258 1.38905e+52
0.0155157 11.017 4.60138 1.31418e+53 10.6468 4.42769 8.79198e+51 14.0325 2.05398 1.39615e+52
0.0156157 10.9935 4.59676 1.3021e+53 10.6522 4.42907 8.90979e+51 14.0445 2.05601 1.40322e+52
0.0157157 10.9714 4.59368 1.2909e+53 10.6578 4.43201 9.02891e+51 14.0566 2.05832 1.41028e+52
0.0158157 10.9497 4.59084 1.2798e+53 10.6635 4.43513 9.14834e+51 14.0688 2.06069 1.41738e+52
0.0159157 10.9308 4.59028 1.26954e+53 10.6692 4.44007 9.2708e+51 14.0814 2.0636 1.42478e+52
0.0160157 10.9119 4.58972 1.25928e+53 10.6748 4.445 9.39326e+51 14.094 2.0665 1.43219e+52
0.0161157 10.8913 4.58846 1.24836e+53 10.6798 4.44824 9.51487e+51 14.1053 2.06911 1.43935e+52
0.0162157 10.869 4.58649 1.23676e+53 10.6842 4.44976 9.63562e+51 14.1154 2.07143 1.44628e+52
0.0163157 10.8467 4.58453 1.22517e+53 10.6885 4.45127 9.75637e+51 14.1255 2.07374 1.4532e+52
0.0164157 10.8237 4.58263 1.21382e+53 10.6931 4.45207 9.87797e+51 14.1333 2.07561 1.45952e+52
0.0165157 10.8005 4.58073 1.2025e+53 10.6978 4.45278 9.99967e+51 14.1409 2.07743 1.46576e+52
0.0166157 10.7785 4.57909 1.19168e+53 10.703 4.45432 1.01231e+52 14.1487 2.07938 1.47209e+52
0.0167157 10.759 4.57806 1.18202e+53 10.7091 4.45783 1.02507e+52 14.1571 2.08167 1.47862e+52
0.0168157 10.7396 4.57704 1.17236e+53 10.7153 4.46134 1.03782e+52 14.1654 2.08396 1.48515e+52
0.0169157 10.7224 4.57622 1.16344e+53 10.722 4.46591 1.05088e+52 14.1753 2.08667 1.49213e+52
0.0170157 10.7062 4.57548 1.15483e+53 10.729 4.47093 1.06407e+52 14.1857 2.08956 1.4993e+52
0.0171157 10.6898 4.57459 1.14613e+53 10.7358 4.47562 1.07722e+52 14.196 2.09236 1.50644e+52
0.0172157 10.6716 4.5726 1.13685e+53 10.7414 4.47804 1.09007e+52 14.2048 2.09459 1.51335e+52
0.0173157 10.6535 4.57061 1.12756e+53 10.7471 4.48046 1.10293e+52 14.2137 2.09682 1.52026e+52
0.0174157 10.6342 4.56836 1.11814e+53 10.7521 4.48126 1.11546e+52 14.2207 2.09861 1.52674e+52
0.0175157 10.6141 4.56593 1.10861e+53 10.7567 4.48089 1.12775e+52 14.2265 2.10011 1.5329e+52
0.0176157 10.5941 4.56356 1.09915e+53 10.7612 4.48059 1.14004e+52 14.2322 2.10162 1.53907e+52
0.0177157 10.5771 4.56253 1.09123e+53 10.7663 4.48175 1.15249e+52 14.2383 2.10358 1.54528e+52
0.0178157 10.5602 4.56149 1.08331e+53 10.7713 4.4829 1.16494e+52 14.2443 2.10555 1.5515e+52
0.0179157 10.5456 4.56058 1.07626e+53 10.7771 4.48529 1.17768e+52 14.2516 2.10783 1.55795e+52
0.0180157 10.5331 4.5598 1.07003e+53 10.7837 4.48882 1.19069e+52 14.2599 2.11042 1.56461e+52
0.0181157 10.5206 4.55901 1.06381e+53 10.7902 4.49235 1.20371e+52 14.2682 2.11301 1.57127e+52
0.0182157 10.509 4.55695 1.05728e+53 10.7983 4.49428 1.21695e+52 14.2781 2.11544 1.57828e+52
0.0183157 10.4974 4.5549 1.05074e+53 10.8065 4.49622 1.2302e+52 14.2881 2.11787 1.5853e+52
0.0184157 10.4839 4.55263 1.04355e+53 10.8143 4.49611 1.24334e+52 14.2971 2.12017 1.59217e+52
0.0185157 10.4677 4.55004 1.0353e+53 10.8217 4.49277 1.25629e+52 14.3047 2.12228 1.59883e+52
0.0186157 10.4514 4.54745 1.02705e+53 10.8292 4.48943 1.26925e+52 14.3122 2.12438 1.60549e+52
0.0187157 10.4341 4.54454 1.01901e+53 10.8359 4.48414 1.2821e+52 14.3171 2.12627 1.61149e+52
0.0188157 10.4166 4.54157 1.011e+53 10.8426 4.47847 1.29494e+52 14.3215 2.12813 1.61737e+52
0.0189157 10.4005 4.53813 1.00358e+53 10.8491 4.47403 1.30776e+52 14.3261 2.12987 1.62321e+52
0.0190157 10.3875 4.53366 9.97513e+52 10.8554 4.47237 1.32058e+52 14.3314 2.13137 1.62898e+52
0.0191157 10.3745 4.52918 9.91444e+52 10.8617 4.47071 1.33339e+52 14.3367 2.13287 1.63476e+52
0.0192157 10.3639 4.52491 9.86295e+52 10.867 4.47251 1.34565e+52 14.3438 2.13421 1.64071e+52
0.0193157 10.3544 4.52073 9.8156e+52 10.8717 4.47586 1.35764e+52 14.3516 2.13549 1.64674e+52
0.0194157 10.3451 4.51684 9.76856e+52 10.8764 4.47929 1.36952e+52 14.3598 2.13678 1.65281e+52
0.0195157 10.3366 4.51448 9.72312e+52 10.8808 4.48318 1.38074e+52 14.3698 2.13817 1.65911e+52
0.0196157 10.3281 4.51212 9.67768e+52 10.8851 4.48707 1.39196e+52 14.3797 2.13956 1.66542e+52
0.0197157 10.3181 4.50997 9.62552e+52 10.8898 4.48869 1.40321e+52 14.3886 2.1412 1.67158e+52
0.0198157 10.307 4.50796 9.56892e+52 10.8948 4.4888 1.41447e+52 14.3967 2.143 1.67765e+52
0.0199157 10.2956 4.50577 9.5112e+52 10.8998 4.4885 1.42578e+52 14.4045 2.14482 1.68363e+52
0.0200157 10.2812 4.50192 9.44332e+52 10.9055 4.4844 1.43757e+52 14.4083 2.14686 1.68877e+52
0.0201157 10.2667 4.49808 9.37543e+52 10.9113 4.48029 1.44936e+52 14.4122 2.14889 1.6939e+52
0.0202157 10.2523 4.49328 9.30904e+52 10.9177 4.47522 1.46145e+52 14.4156 2.15064 1.69879e+52
0.0203157 10.2381 4.48762 9.244e+52 10.9246 4.46928 1.47381e+52 14.4186 2.15212 1.70345e+52
0.0204157 10.2239 4.48195 9.17896e+52 10.9316 4.46333 1.48616e+52 14.4216 2.1536 1.70811e+52
0.0205157 10.2118 4.47632 9.12469e+52 10.9372 4.46076 1.49801e+52 14.4259 2.15431 1.71282e+52
