# If you use this flux, cite http://wwwmpa.mpa-garching.mpg.de/ccsnarchive/data/Huedepohl2014_phd_thesis/, 
# Huedepohl, L. (2014), Neutrinos from the Formation, Cooling and Black Hole Collapse of Neutron Stars, PhD. Thesis, Technische Universitat Muenchen
# time (s), <energy> (MeV), alpha, luminosity (foe/s), for nu_e, nu_e_bar, nu_mu
-0.00037743 9.03821 5.94701 1.20531e+53 0 0 0 0 0 0
-0.00027743 9.05489 5.95315 1.2138e+53 3.44616 2.29899 2.4186e+45 3.33844 1.80559 1.88591e+45
-0.00017743 9.07218 5.96006 1.22141e+53 3.44335 2.77659 6.0871e+45 3.22439 2.37359 3.83416e+45
-7.74302e-05 9.09002 5.96774 1.22807e+53 3.46634 2.94801 1.21924e+46 3.20601 2.65111 6.94281e+45
2.25698e-05 9.10795 5.97592 1.23584e+53 3.5017 3.04814 2.03793e+46 3.21305 2.81316 1.13056e+46
0.00012257 9.12692 5.9849 1.24002e+53 3.50647 2.98201 3.0964e+46 3.2355 2.88843 1.71051e+46
0.00022257 9.14605 5.9944 1.24304e+53 3.49034 2.93893 4.28259e+46 3.25122 2.94222 2.38123e+46
0.00032257 9.16545 6.00453 1.24466e+53 3.47478 2.91145 5.49885e+46 3.26665 2.97688 3.10323e+46
0.00042257 9.18513 6.01535 1.24489e+53 3.47646 2.90365 6.7024e+46 3.28661 3.00238 3.84575e+46
0.00052257 9.20515 6.02687 1.24374e+53 3.49083 2.90254 7.90609e+46 3.31126 3.01419 4.6094e+46
0.00062257 9.22547 6.03902 1.24108e+53 3.51394 2.89791 9.1433e+46 3.33741 2.98788 5.43699e+46
0.00072257 9.24601 6.05175 1.2368e+53 3.54371 2.88293 1.04503e+47 3.22999 2.744 6.96871e+46
0.00082257 9.26676 6.06515 1.23076e+53 3.57991 2.85274 1.18637e+47 3.13076 3.20207 1.45328e+47
0.00092257 9.28772 6.07929 1.22283e+53 3.62259 2.80494 1.34157e+47 3.16226 3.42714 3.3354e+47
0.00102257 9.30886 6.09416 1.21303e+53 3.67064 2.74168 1.5124e+47 3.26881 3.46767 7.30888e+47
0.00112257 9.33016 6.10989 1.20111e+53 3.72173 2.66738 1.70249e+47 3.38839 3.55058 1.59769e+48
0.00122257 9.35158 6.1265 1.18726e+53 3.78969 2.63766 1.95315e+47 3.51494 3.59291 3.31793e+48
0.00132257 9.37309 6.1442 1.17127e+53 4.08117 3.3462 2.93773e+47 3.63911 3.62216 6.75214e+48
0.00142257 9.39467 6.16289 1.15323e+53 4.40617 4.52959 5.93238e+47 3.75648 3.66319 1.30337e+49
0.00152257 9.41643 6.18255 1.13303e+53 4.52919 4.92166 1.25068e+48 3.88182 3.66404 2.42475e+49
0.00162257 9.43859 6.2034 1.11063e+53 4.57494 4.84474 2.54598e+48 4.01163 3.67407 4.35645e+49
0.00172257 9.46148 6.22639 1.08605e+53 4.60751 4.73691 5.00015e+48 4.15648 3.70598 7.56128e+49
0.00182257 9.48536 6.25256 1.05956e+53 4.65116 4.67425 9.37545e+48 4.32163 3.72811 1.24198e+50
0.00192257 9.50986 6.2812 1.03153e+53 4.71597 4.64072 1.62994e+49 4.51396 3.70888 1.91653e+50
0.00202257 9.53372 6.30895 1.0025e+53 4.81544 4.62529 2.57652e+49 4.73421 3.65654 2.79973e+50
0.00212257 9.55434 6.32937 9.73234e+52 4.96314 4.60381 3.71062e+49 4.98361 3.58645 3.93245e+50
0.00222257 9.56975 6.33767 9.44511e+52 5.15568 4.54157 4.9143e+49 5.26165 3.49918 5.31359e+50
0.00232257 9.57342 6.32299 9.18799e+52 5.37978 4.41179 6.05073e+49 5.58017 3.42466 7.10546e+50
0.00242257 9.56808 6.29591 8.9706e+52 5.6143 4.25843 7.13524e+49 5.92444 3.3673 9.26293e+50
0.00252257 9.55352 6.25758 8.79831e+52 5.85572 4.08861 8.16658e+49 6.29361 3.32948 1.18079e+51
0.00262257 9.53252 6.22318 8.72247e+52 6.09208 3.9323 9.18982e+49 6.68249 3.3158 1.49722e+51
0.00272257 9.50872 6.19047 8.68842e+52 6.32625 3.78183 1.02096e+50 7.07992 3.31259 1.84048e+51
0.00282257 9.49446 6.18388 8.84214e+52 6.54258 3.66916 1.12941e+50 7.47945 3.31809 2.27474e+51
0.00292257 9.48931 6.18226 9.06521e+52 6.75337 3.56659 1.24123e+50 7.87382 3.32221 2.7335e+51
0.00302257 9.50752 6.19268 9.4625e+52 6.95035 3.4891 1.36158e+50 8.2547 3.32242 3.25302e+51
0.00312257 9.55483 6.18715 1.00262e+53 7.1389 3.42782 1.49164e+50 8.62192 3.31459 3.80989e+51
0.00322257 9.62426 6.1695 1.07166e+53 7.32102 3.37888 1.6291e+50 8.97875 3.30065 4.39518e+51
0.00332257 9.74836 6.10721 1.17407e+53 7.49368 3.35212 1.79147e+50 9.30892 3.27269 5.02057e+51
0.00342257 9.88151 6.03754 1.28201e+53 7.66476 3.32903 1.95797e+50 9.63468 3.24241 5.6526e+51
0.00352257 10.0447 5.95371 1.41453e+53 7.83012 3.31851 2.14929e+50 9.94379 3.19969 6.2802e+51
0.00362257 10.2331 5.85801 1.56765e+53 7.99068 3.31851 2.3614e+50 10.2389 3.14655 6.90408e+51
0.00372257 10.422 5.76273 1.72153e+53 8.1509 3.31881 2.57473e+50 10.5329 3.09346 7.5265e+51
0.00382257 10.6318 5.68467 1.90846e+53 8.29672 3.33183 2.84017e+50 10.7761 3.04265 8.08583e+51
0.00392257 10.8417 5.6066 2.09538e+53 8.44255 3.34486 3.10561e+50 11.0193 2.99185 8.64517e+51
0.00402257 11.0462 5.54415 2.28767e+53 8.57862 3.35915 3.39734e+50 11.2464 2.93431 9.17459e+51
0.00412257 11.2453 5.49721 2.4853e+53 8.70501 3.3747 3.7152e+50 11.4577 2.87009 9.67428e+51
0.00422257 11.4444 5.45026 2.68292e+53 8.8314 3.39024 4.03306e+50 11.669 2.80587 1.0174e+52
0.00432257 11.6168 5.42351 2.86807e+53 8.93679 3.40156 4.39643e+50 11.8481 2.73856 1.05864e+52
0.00442257 11.7886 5.39717 3.05297e+53 9.04177 3.4128 4.76071e+50 12.0266 2.6712 1.09971e+52
0.00452257 11.9455 5.37577 3.22422e+53 9.13703 3.4217 5.14383e+50 12.1896 2.60511 1.13679e+52
0.00462257 12.0847 5.3602 3.37938e+53 9.22084 3.42786 5.54913e+50 12.3344 2.54052 1.16918e+52
0.00472257 12.2239 5.34462 3.53454e+53 9.30465 3.43402 5.95443e+50 12.4792 2.47594 1.20158e+52
0.00482257 12.3332 5.33363 3.65302e+53 9.3703 3.43732 6.39487e+50 12.5957 2.41598 1.22709e+52
0.00492257 12.4405 5.32295 3.76907e+53 9.43474 3.44042 6.83765e+50 12.7104 2.35634 1.25215e+52
0.00502257 12.5362 5.31313 3.86875e+53 9.49251 3.44315 7.29649e+50 12.8143 2.29948 1.27505e+52
0.00512257 12.6159 5.3045 3.9455e+53 9.54091 3.44535 7.77784e+50 12.9031 2.24653 1.29492e+52
0.00522257 12.6956 5.29588 4.02225e+53 9.58931 3.44755 8.25919e+50 12.9919 2.19358 1.31479e+52
0.00532257 12.7547 5.28751 4.06804e+53 9.62767 3.45234 8.78436e+50 13.0617 2.14745 1.33188e+52
0.00542257 12.8114 5.27918 4.1102e+53 9.66486 3.45743 9.31467e+50 13.1294 2.10213 1.34865e+52
0.00552257 12.861 5.27046 4.14179e+53 9.699 3.46381 9.86323e+50 13.1909 2.05963 1.3648e+52
0.00562257 12.8989 5.26112 4.15568e+53 9.72803 3.47234 1.04423e+51 13.2424 2.02186 1.37991e+52
0.00572257 12.9368 5.25178 4.16958e+53 9.75706 3.48086 1.10215e+51 13.2939 1.9841 1.39502e+52
0.00582257 12.9635 5.24205 4.16824e+53 9.77919 3.48897 1.16259e+51 13.3365 1.95167 1.40986e+52
0.00592257 12.988 5.23224 4.16395e+53 9.79997 3.49701 1.22353e+51 13.3774 1.92028 1.42464e+52
0.00602257 13.0037 5.22189 4.14736e+53 9.81926 3.50726 1.2889e+51 13.4116 1.89408 1.43969e+52
0.00612257 13.0186 5.21148 4.1295e+53 9.83839 3.51775 1.35473e+51 13.4452 1.86842 1.45477e+52
0.00622257 13.0295 5.20082 4.10734e+53 9.85594 3.52808 1.42192e+51 13.4765 1.84497 1.47018e+52
0.00632257 13.0343 5.18977 4.07861e+53 9.87108 3.53819 1.49117e+51 13.5042 1.82488 1.48611e+52
0.00642257 13.0391 5.17872 4.04989e+53 9.88621 3.54831 1.56042e+51 13.532 1.80479 1.50204e+52
0.00652257 13.0386 5.16744 4.01542e+53 9.8946 3.55458 1.63095e+51 13.5572 1.78917 1.51924e+52
0.00662257 13.0374 5.15613 3.98015e+53 9.90206 3.56033 1.70164e+51 13.5821 1.77417 1.53663e+52
0.00672257 13.0334 5.14433 3.94281e+53 9.90963 3.5651 1.77403e+51 13.6063 1.76051 1.55449e+52
0.00682257 13.0243 5.13167 3.90177e+53 9.91739 3.56815 1.84939e+51 13.6294 1.74923 1.5732e+52
0.00692257 13.0152 5.11902 3.86074e+53 9.92516 3.57119 1.92475e+51 13.6526 1.73796 1.5919e+52
0.00702257 13.0041 5.1072 3.81948e+53 9.93184 3.57438 2.00309e+51 13.6757 1.7291 1.61161e+52
0.00712257 12.9926 5.09553 3.77818e+53 9.93834 3.5776 2.08197e+51 13.6988 1.72069 1.6315e+52
0.00722257 12.9801 5.08324 3.73604e+53 9.94504 3.58032 2.16218e+51 13.7223 1.71304 1.65173e+52
0.00732257 12.9656 5.06968 3.69222e+53 9.95216 3.58202 2.2451e+51 13.7466 1.70695 1.67267e+52
0.00742257 12.9511 5.05613 3.64839e+53 9.95927 3.58372 2.32803e+51 13.7709 1.70086 1.69361e+52
0.00752257 12.9341 5.04394 3.60628e+53 9.96864 3.58638 2.41542e+51 13.7957 1.69592 1.71532e+52
0.00762257 12.9164 5.03205 3.56455e+53 9.97852 3.58927 2.50383e+51 13.8206 1.69124 1.73721e+52
0.00772257 12.8988 5.02015 3.52284e+53 9.9882 3.59248 2.5933e+51 13.8457 1.68689 1.75935e+52
0.00782257 12.8811 5.00819 3.48117e+53 9.99746 3.59645 2.68516e+51 13.8716 1.68331 1.78207e+52
0.00792257 12.8635 4.99623 3.4395e+53 10.0067 3.60041 2.77702e+51 13.8975 1.67973 1.80479e+52
0.00802257 12.8422 4.98384 3.39762e+53 10.015 3.60333 2.8712e+51 13.9234 1.67627 1.82774e+52
0.00812257 12.82 4.97134 3.35569e+53 10.0231 3.60599 2.96596e+51 13.9494 1.67284 1.85074e+52
0.00822257 12.798 4.95963 3.31507e+53 10.0321 3.60838 3.06238e+51 13.9755 1.66944 1.8738e+52
0.00832257 12.7764 4.94988 3.27772e+53 10.0434 3.61011 3.16295e+51 14.0019 1.6661 1.89701e+52
0.00842257 12.7549 4.94014 3.24037e+53 10.0547 3.61183 3.26351e+51 14.0284 1.66277 1.92022e+52
0.00852257 12.7328 4.92829 3.20157e+53 10.0658 3.61322 3.36682e+51 14.0556 1.65964 1.94371e+52
0.00862257 12.7106 4.91581 3.16233e+53 10.0768 3.6145 3.47096e+51 14.0829 1.65658 1.96728e+52
0.00872257 12.6871 4.90324 3.12329e+53 10.0869 3.61659 3.57598e+51 14.1099 1.65342 1.9908e+52
0.00882257 12.66 4.89042 3.08487e+53 10.0943 3.62113 3.68365e+51 14.1361 1.64994 2.01418e+52
0.00892257 12.6329 4.87759 3.04646e+53 10.1017 3.62566 3.79132e+51 14.1622 1.64646 2.03755e+52
0.00902257 12.6088 4.86728 3.01178e+53 10.1137 3.63115 3.90683e+51 14.189 1.64299 2.06085e+52
0.00912257 12.5856 4.85788 2.97846e+53 10.1274 3.63699 4.02522e+51 14.2161 1.63952 2.08411e+52
0.00922257 12.5622 4.84809 2.94474e+53 10.1422 3.64225 4.14533e+51 14.2432 1.63606 2.10736e+52
0.00932257 12.5375 4.83666 2.90932e+53 10.1613 3.64512 4.27258e+51 14.2703 1.63263 2.1305e+52
0.00942257 12.5128 4.82524 2.87391e+53 10.1805 3.64798 4.39984e+51 14.2974 1.6292 2.15365e+52
0.00952257 12.4852 4.81377 2.8384e+53 10.1975 3.65178 4.52819e+51 14.3233 1.62546 2.17632e+52
0.00962257 12.4565 4.80363 2.80462e+53 10.211 3.65863 4.65725e+51 14.3478 1.62144 2.19846e+52
0.00972257 12.4277 4.79348 2.77085e+53 10.2245 3.66548 4.78632e+51 14.3724 1.61742 2.2206e+52
0.00982257 12.4016 4.78513 2.73911e+53 10.2365 3.67587 4.91821e+51 14.3973 1.61378 2.24286e+52
0.00992257 12.3766 4.77755 2.70827e+53 10.248 3.6878 5.05134e+51 14.4225 1.61031 2.26517e+52
0.0100226 12.3509 4.76962 2.67707e+53 10.2599 3.69905 5.18549e+51 14.4474 1.60683 2.2874e+52
0.0101226 12.322 4.76005 2.64416e+53 10.2738 3.70713 5.32443e+51 14.4715 1.60332 2.30928e+52
0.0102226 12.2931 4.75047 2.61125e+53 10.2878 3.71522 5.46337e+51 14.4957 1.59982 2.33116e+52
0.0103226 12.2628 4.74055 2.57991e+53 10.3018 3.72094 5.60431e+51 14.5176 1.59593 2.35221e+52
0.0104226 12.2318 4.73046 2.54939e+53 10.3158 3.72543 5.74631e+51 14.5383 1.59185 2.37283e+52
0.0105226 12.2013 4.72034 2.51909e+53 10.3295 3.73037 5.88866e+51 14.559 1.58788 2.39348e+52
0.0106226 12.1736 4.7101 2.49014e+53 10.341 3.73805 6.03326e+51 14.5793 1.58467 2.41429e+52
0.0107226 12.146 4.69986 2.46118e+53 10.3525 3.74573 6.17785e+51 14.5996 1.58145 2.4351e+52
0.0108226 12.1159 4.6889 2.43051e+53 10.361 3.75618 6.32269e+51 14.6195 1.579 2.45589e+52
0.0109226 12.0843 4.67748 2.39879e+53 10.3678 3.76832 6.46766e+51 14.6391 1.57701 2.47667e+52
0.0110226 12.0523 4.66622 2.36728e+53 10.3744 3.78023 6.61293e+51 14.6583 1.57506 2.49727e+52
0.0111226 12.0174 4.65627 2.33762e+53 10.3805 3.79001 6.7608e+51 14.674 1.57348 2.51622e+52
0.0112226 11.9826 4.64632 2.30797e+53 10.3865 3.7998 6.90866e+51 14.6897 1.57191 2.53516e+52
0.0113226 11.951 4.63973 2.28165e+53 10.3957 3.80715 7.06221e+51 14.7039 1.57114 2.55371e+52
0.0114226 11.9218 4.63557 2.25774e+53 10.4072 3.81273 7.21986e+51 14.717 1.57097 2.57196e+52
0.0115226 11.8927 4.63147 2.23376e+53 10.4187 3.81842 7.37783e+51 14.7299 1.57092 2.59018e+52
0.0116226 11.8637 4.62834 2.20856e+53 10.4312 3.82574 7.54079e+51 14.7398 1.57279 2.60778e+52
0.0117226 11.8347 4.62521 2.18336e+53 10.4437 3.83306 7.70375e+51 14.7498 1.57466 2.62538e+52
0.0118226 11.8028 4.61907 2.1569e+53 10.4534 3.84274 7.86438e+51 14.7565 1.57738 2.64148e+52
0.0119226 11.7686 4.61038 2.12936e+53 10.4607 3.85441 8.02303e+51 14.7604 1.58082 2.65631e+52
0.0120226 11.7344 4.60172 2.10192e+53 10.4678 3.8661 8.1815e+51 14.7642 1.58431 2.67109e+52
0.0121226 11.7032 4.59436 2.07848e+53 10.4699 3.87882 8.33215e+51 14.764 1.59015 2.68392e+52
0.0122226 11.6721 4.58699 2.05503e+53 10.4719 3.89155 8.4828e+51 14.7638 1.59598 2.69675e+52
0.0123226 11.6418 4.58202 2.03189e+53 10.4736 3.90298 8.63268e+51 14.7617 1.60325 2.7088e+52
0.0124226 11.6123 4.5794 2.00905e+53 10.4752 3.91313 8.78179e+51 14.7578 1.61193 2.72008e+52
0.0125226 11.5828 4.57678 1.98621e+53 10.4767 3.92328 8.9309e+51 14.7539 1.62061 2.73137e+52
0.0126226 11.551 4.56946 1.96224e+53 10.4797 3.93373 9.08334e+51 14.7427 1.63167 2.73943e+52
0.0127226 11.5192 4.56204 1.93825e+53 10.4828 3.94419 9.23584e+51 14.7313 1.64277 2.74743e+52
0.0128226 11.4888 4.55354 1.91545e+53 10.4865 3.95491 9.39005e+51 14.7183 1.65509 2.75478e+52
0.0129226 11.4608 4.54341 1.89444e+53 10.4912 3.96602 9.54683e+51 14.7032 1.66925 2.76115e+52
0.0130226 11.4328 4.53327 1.87343e+53 10.4958 3.97714 9.70362e+51 14.688 1.6834 2.76752e+52
0.0131226 11.4053 4.52491 1.8522e+53 10.4998 3.98714 9.85877e+51 14.6719 1.69996 2.77334e+52
0.0132226 11.378 4.51695 1.83092e+53 10.5036 3.99689 1.00135e+52 14.6557 1.71707 2.77904e+52
0.0133226 11.3506 4.50762 1.80974e+53 10.5061 4.0076 1.01655e+52 14.6389 1.73461 2.78438e+52
0.0134226 11.3232 4.49378 1.78886e+53 10.5043 4.02148 1.03083e+52 14.62 1.75357 2.7885e+52
0.0135226 11.2958 4.47994 1.76799e+53 10.5025 4.03537 1.04512e+52 14.6012 1.77252 2.79263e+52
0.0136226 11.2703 4.46678 1.74863e+53 10.499 4.05049 1.05905e+52 14.5823 1.79225 2.79636e+52
0.0137226 11.2457 4.45398 1.73009e+53 10.4947 4.06628 1.0728e+52 14.5636 1.81238 2.79988e+52
0.0138226 11.2212 4.44108 1.7115e+53 10.4906 4.08156 1.08662e+52 14.5449 1.83251 2.80341e+52
0.0139226 11.1962 4.42679 1.69223e+53 10.4902 4.08971 1.10143e+52 14.5273 1.85255 2.80699e+52
0.0140226 11.1711 4.4125 1.67297e+53 10.4898 4.09786 1.11623e+52 14.5097 1.8726 2.81058e+52
0.0141226 11.1471 4.39633 1.6544e+53 10.4919 4.10704 1.13188e+52 14.4942 1.89249 2.81473e+52
0.0142226 11.1242 4.37814 1.63657e+53 10.4966 4.11732 1.14842e+52 14.4809 1.9122 2.81947e+52
0.0143226 11.1013 4.35996 1.61874e+53 10.5013 4.12759 1.16496e+52 14.4676 1.93191 2.82422e+52
0.0144226 11.0805 4.34764 1.60247e+53 10.5106 4.13933 1.18308e+52 14.4592 1.95126 2.83011e+52
0.0145226 11.0599 4.33595 1.58636e+53 10.5203 4.15123 1.20138e+52 14.4514 1.97056 2.83613e+52
0.0146226 11.0393 4.32375 1.57033e+53 10.5308 4.16127 1.21988e+52 14.4439 1.98924 2.84206e+52
0.0147226 11.0184 4.31041 1.55446e+53 10.5427 4.16734 1.23884e+52 14.4374 2.00659 2.84781e+52
0.0148226 10.9975 4.29708 1.53859e+53 10.5546 4.1734 1.2578e+52 14.4309 2.02393 2.85355e+52
0.0149226 10.9782 4.28546 1.52425e+53 10.567 4.18003 1.27697e+52 14.426 2.03989 2.85935e+52
0.0150226 10.9596 4.27446 1.51046e+53 10.5796 4.18687 1.29621e+52 14.4218 2.05536 2.86516e+52
0.0151226 10.941 4.26436 1.49681e+53 10.5921 4.19366 1.31556e+52 14.4178 2.07059 2.871e+52
0.0152226 10.9228 4.2593 1.48388e+53 10.6051 4.20024 1.33547e+52 14.4151 2.08455 2.8769e+52
0.0153226 10.9047 4.25423 1.47094e+53 10.618 4.20681 1.35537e+52 14.4125 2.09851 2.88281e+52
0.0154226 10.887 4.24654 1.45848e+53 10.632 4.21097 1.37594e+52 14.4099 2.11153 2.88846e+52
0.0155226 10.8698 4.23688 1.44636e+53 10.6468 4.21329 1.39699e+52 14.4075 2.12383 2.89391e+52
0.0156226 10.8525 4.22722 1.43424e+53 10.6616 4.21561 1.41804e+52 14.405 2.13613 2.89936e+52
0.0157226 10.836 4.22137 1.42307e+53 10.6793 4.21814 1.44035e+52 14.4055 2.14699 2.90488e+52
0.0158226 10.8195 4.21556 1.41191e+53 10.697 4.22067 1.46267e+52 14.4061 2.15783 2.91039e+52
0.0159226 10.801 4.21268 1.40011e+53 10.7142 4.22347 1.48517e+52 14.4067 2.16804 2.91557e+52
0.0160226 10.7796 4.21409 1.38734e+53 10.7308 4.22667 1.50793e+52 14.4072 2.17733 2.92023e+52
0.0161226 10.7582 4.21549 1.37457e+53 10.7473 4.22988 1.53069e+52 14.4078 2.18662 2.9249e+52
0.0162226 10.7372 4.21385 1.36259e+53 10.7618 4.23399 1.55349e+52 14.4071 2.1947 2.92884e+52
0.0163226 10.7163 4.21153 1.35078e+53 10.7759 4.2383 1.57631e+52 14.4062 2.20251 2.93263e+52
0.0164226 10.6971 4.20882 1.33982e+53 10.7901 4.24307 1.59928e+52 14.4058 2.21011 2.93658e+52
0.0165226 10.6837 4.20485 1.33159e+53 10.8045 4.24932 1.62269e+52 14.407 2.21701 2.94103e+52
0.0166226 10.6702 4.20087 1.32336e+53 10.819 4.25556 1.6461e+52 14.4083 2.22391 2.94549e+52
0.0167226 10.6564 4.20015 1.31503e+53 10.8344 4.25954 1.67024e+52 14.4101 2.23039 2.95023e+52
0.0168226 10.6424 4.20113 1.30665e+53 10.8504 4.26232 1.69477e+52 14.4121 2.23666 2.95512e+52
0.0169226 10.6282 4.20225 1.29818e+53 10.8664 4.26488 1.71933e+52 14.4141 2.24289 2.95999e+52
0.0170226 10.6086 4.20557 1.28808e+53 10.8823 4.26337 1.74474e+52 14.4139 2.24828 2.96432e+52
0.0171226 10.5884 4.20899 1.2779e+53 10.8981 4.26162 1.77022e+52 14.4135 2.25358 2.96858e+52
0.0172226 10.5688 4.21206 1.26811e+53 10.9138 4.25987 1.79583e+52 14.4133 2.25857 2.97286e+52
0.0173226 10.5509 4.21395 1.25967e+53 10.9291 4.25809 1.82189e+52 14.4136 2.26258 2.9772e+52
0.0174226 10.533 4.21585 1.25123e+53 10.9444 4.25631 1.84795e+52 14.4139 2.26659 2.98154e+52
0.0175226 10.5193 4.21621 1.24444e+53 10.9605 4.25527 1.87457e+52 14.4167 2.26984 2.98657e+52
0.0176226 10.508 4.21572 1.23856e+53 10.977 4.25464 1.9015e+52 14.4211 2.27267 2.99198e+52
0.0177226 10.4966 4.2153 1.23265e+53 10.9935 4.25419 1.92845e+52 14.4254 2.27552 2.99739e+52
0.0178226 10.4854 4.21589 1.22626e+53 11.0091 4.25633 1.95572e+52 14.4295 2.27865 3.00281e+52
0.0179226 10.4741 4.21649 1.21986e+53 11.0246 4.25847 1.98299e+52 14.4337 2.28179 3.00824e+52
0.0180226 10.4608 4.21826 1.21273e+53 11.0391 4.26088 2.01036e+52 14.4364 2.28509 3.0135e+52
0.0181226 10.4452 4.22131 1.20481e+53 11.0525 4.26361 2.03784e+52 14.4376 2.28857 3.0186e+52
0.0182226 10.4296 4.22436 1.19688e+53 11.0659 4.26633 2.06532e+52 14.4387 2.29206 3.0237e+52
0.0183226 10.4145 4.22863 1.18985e+53 11.0786 4.26975 2.09304e+52 14.4402 2.29524 3.02942e+52
0.0184226 10.3996 4.23305 1.18292e+53 11.0913 4.27326 2.1208e+52 14.4417 2.29838 3.03521e+52
0.0185226 10.3858 4.23731 1.1766e+53 11.104 4.27706 2.14854e+52 14.444 2.30135 3.04139e+52
0.0186226 10.3748 4.24122 1.17164e+53 11.1164 4.28153 2.17626e+52 14.448 2.30395 3.04838e+52
0.0187226 10.3638 4.24514 1.16668e+53 11.1289 4.286 2.20398e+52 14.452 2.30654 3.05538e+52
0.0188226 10.3548 4.24852 1.16258e+53 11.1417 4.28949 2.23186e+52 14.4577 2.3084 3.0632e+52
0.0189226 10.3465 4.2517 1.15881e+53 11.1547 4.29261 2.2598e+52 14.464 2.30999 3.07131e+52
0.0190226 10.3385 4.25494 1.15514e+53 11.1679 4.29539 2.28783e+52 14.4706 2.31152 3.07954e+52
0.0191226 10.3323 4.25857 1.15214e+53 11.1824 4.2962 2.31634e+52 14.4787 2.31262 3.08842e+52
0.0192226 10.3261 4.26219 1.14914e+53 11.1968 4.29702 2.34486e+52 14.4868 2.31371 3.09729e+52
0.0193226 10.3207 4.26599 1.14637e+53 11.2113 4.2973 2.3732e+52 14.4949 2.31466 3.10621e+52
0.0194226 10.3159 4.26991 1.14379e+53 11.2258 4.29719 2.4014e+52 14.5031 2.31549 3.11516e+52
0.0195226 10.3111 4.27384 1.14121e+53 11.2403 4.29707 2.4296e+52 14.5113 2.31631 3.1241e+52
0.0196226 10.3059 4.2763 1.13843e+53 11.2524 4.29737 2.45659e+52 14.5174 2.31673 3.13267e+52
0.0197226 10.3007 4.27874 1.13564e+53 11.2644 4.29768 2.48356e+52 14.5235 2.31714 3.14123e+52
0.0198226 10.2953 4.28041 1.13281e+53 11.2759 4.29776 2.51037e+52 14.5291 2.31738 3.14981e+52
0.0199226 10.2898 4.28093 1.1299e+53 11.2866 4.29747 2.53693e+52 14.5339 2.31739 3.15841e+52
0.0200226 10.2842 4.28144 1.127e+53 11.2973 4.29719 2.5635e+52 14.5388 2.31739 3.167e+52
0.0201226 10.2787 4.28173 1.12421e+53 11.3077 4.29702 2.58981e+52 14.5447 2.3171 3.17591e+52
0.0202226 10.2733 4.28198 1.12146e+53 11.3181 4.29688 2.61606e+52 14.5509 2.31674 3.18488e+52
0.0203226 10.2679 4.28223 1.11873e+53 11.3281 4.29725 2.64196e+52 14.5574 2.31622 3.19387e+52
0.0204226 10.2623 4.28253 1.11609e+53 11.3369 4.29932 2.66664e+52 14.5653 2.31513 3.20292e+52
0.0205226 10.2567 4.28284 1.11344e+53 11.3457 4.3014 2.69133e+52 14.5731 2.31405 3.21197e+52
